* Measurement data measured by REW V5.20.13
* Source: Headset (DS by VECLAN.COM), MICROPHONE (Master Volume), L, volume: 0.880. Timing signal peak level -18.0 dBFS, measurement signal peak level -16.1 dBFS
* Format: 2M Log Swept Sine, 1 sweep at -12.0 dBFS using an acoustic timing reference
* Dated: Nov 11, 2023 5:55:47 PM
* REW Settings:
*  C-weighting compensation: Off
*  Target level: 75.0 dB
* Note: ; Delay -0.0699 ms (-24 mm, -0.94 in) using estimated IR delay relative to Acoustic reference played from HEADPHONE R with no timing offset
* Measurement: Hyla CE-5 R
* Smoothing: 1/24 octave
* Frequency Step: 1/48 octave
* Start Frequency: 1.000 Hz
*
* Freq(Hz) SPL(dB) Phase(degrees)
1.000000 79.927 -95.5588
1.015000 80.601 -96.1528
1.030000 81.243 -96.7182
1.044000 81.810 -97.2180
1.060000 82.412 -97.7533
1.075000 82.927 -98.2175
1.090000 83.387 -98.6428
1.106000 83.816 -99.0500
1.120000 84.162 -99.3635
1.138000 84.575 -99.7111
1.150000 84.832 -99.9106
1.172000 85.267 -100.2160
1.180000 85.415 -100.3093
1.206000 85.857 -100.5549
1.220000 86.074 -100.6550
1.241000 86.373 -100.7703
1.250000 86.492 -100.8089
1.265000 86.681 -100.8612
1.280000 86.858 -100.9014
1.315000 87.231 -100.9667
1.320000 87.281 -100.9746
1.340000 87.472 -101.0071
1.360000 87.653 -101.0472
1.380000 87.827 -101.1026
1.400000 87.998 -101.1812
1.430000 88.255 -101.3593
1.450000 88.430 -101.5295
1.475000 88.657 -101.8093
1.500000 88.865 -102.1321
1.525000 89.051 -102.4849
1.550000 89.216 -102.8630
1.575000 89.364 -103.2616
1.600000 89.496 -103.6760
1.625000 89.614 -104.1015
1.650000 89.722 -104.5333
1.675000 89.821 -104.9668
1.700000 89.914 -105.3972
1.725000 90.003 -105.8198
1.750000 90.090 -106.2299
1.775000 90.178 -106.6228
1.800000 90.270 -106.9937
1.825000 90.367 -107.3379
1.850000 90.467 -107.6541
1.875000 90.563 -107.9497
1.900000 90.654 -108.2276
1.925000 90.740 -108.4904
1.950000 90.823 -108.7408
1.975000 90.903 -108.9813
2.000000 90.981 -109.2147
2.030000 91.071 -109.4889
2.060000 91.159 -109.7610
2.090000 91.247 -110.0357
2.120000 91.334 -110.3174
2.140000 91.393 -110.5114
2.180000 91.513 -110.9202
2.200000 91.576 -111.1377
2.240000 91.702 -111.5894
2.270000 91.797 -111.9378
2.300000 91.892 -112.2931
2.330000 91.987 -112.6540
2.360000 92.082 -113.0193
2.400000 92.206 -113.5110
2.430000 92.298 -113.8816
2.470000 92.419 -114.3758
2.500000 92.506 -114.7449
2.540000 92.620 -115.2325
2.580000 92.728 -115.7136
2.620000 92.833 -116.1966
2.650000 92.908 -116.5606
2.690000 93.006 -117.0469
2.720000 93.078 -117.4112
2.760000 93.171 -117.8950
2.800000 93.261 -118.3747
2.850000 93.372 -118.9660
2.900000 93.480 -119.5444
2.950000 93.586 -120.1062
3.000000 93.690 -120.6499
3.040000 93.770 -121.0743
3.070000 93.829 -121.3880
3.110000 93.907 -121.8018
3.150000 93.982 -122.2127
3.200000 94.074 -122.7257
3.250000 94.164 -123.2422
3.300000 94.251 -123.7664
3.350000 94.336 -124.3019
3.400000 94.417 -124.8452
3.450000 94.497 -125.3914
3.500000 94.574 -125.9355
3.550000 94.648 -126.4725
3.600000 94.721 -126.9974
3.650000 94.793 -127.5051
3.700000 94.862 -127.9918
3.750000 94.929 -128.4600
3.820000 95.019 -129.0927
3.870000 95.082 -129.5343
3.950000 95.179 -130.2351
4.000000 95.238 -130.6762
4.060000 95.307 -131.2149
4.120000 95.375 -131.7596
4.180000 95.441 -132.3056
4.250000 95.515 -132.9389
4.310000 95.577 -133.4737
4.370000 95.638 -133.9966
4.440000 95.706 -134.5875
4.500000 95.762 -135.0795
4.550000 95.808 -135.4818
4.620000 95.870 -136.0365
4.680000 95.922 -136.5075
4.750000 95.981 -137.0561
4.820000 96.038 -137.6061
4.870000 96.078 -137.9983
4.940000 96.132 -138.5440
5.000000 96.178 -139.0067
5.080000 96.236 -139.6131
5.150000 96.286 -140.1311
5.220000 96.334 -140.6382
5.300000 96.386 -141.2062
5.380000 96.437 -141.7631
5.450000 96.480 -142.2419
5.520000 96.523 -142.7135
5.600000 96.570 -143.2422
5.700000 96.626 -143.8884
5.800000 96.682 -144.5203
5.900000 96.736 -145.1392
6.000000 96.789 -145.7428
6.080000 96.830 -146.2161
6.150000 96.866 -146.6248
6.220000 96.902 -147.0296
6.300000 96.942 -147.4861
6.400000 96.992 -148.0462
6.500000 97.041 -148.5998
6.600000 97.089 -149.1529
6.700000 97.137 -149.7053
6.800000 97.184 -150.2552
6.900000 97.230 -150.8039
7.000000 97.274 -151.3526
7.100000 97.316 -151.9014
7.200000 97.357 -152.4492
7.300000 97.396 -152.9949
7.400000 97.431 -153.5397
7.500000 97.464 -154.0853
7.620000 97.501 -154.7313
7.750000 97.534 -155.4097
7.880000 97.563 -156.0726
8.000000 97.585 -156.6609
8.120000 97.604 -157.2167
8.250000 97.620 -157.7878
8.380000 97.634 -158.3208
8.500000 97.646 -158.7724
8.620000 97.656 -159.1866
8.750000 97.668 -159.5997
8.850000 97.679 -159.8940
9.000000 97.698 -160.2907
9.120000 97.716 -160.5873
9.250000 97.740 -160.8975
9.380000 97.770 -161.1894
9.500000 97.799 -161.4638
9.620000 97.829 -161.7523
9.750000 97.863 -162.0730
9.880000 97.891 -162.4150
10.000000 97.911 -162.7575
10.150000 97.928 -163.2132
10.300000 97.935 -163.6878
10.440000 97.932 -164.1517
10.600000 97.920 -164.6913
10.750000 97.904 -165.1964
10.900000 97.882 -165.7013
11.060000 97.856 -166.2209
11.200000 97.829 -166.6634
11.380000 97.793 -167.1941
11.500000 97.766 -167.5176
11.720000 97.718 -168.0592
11.800000 97.703 -168.2386
12.060000 97.658 -168.7700
12.200000 97.641 -169.0446
12.410000 97.622 -169.4444
12.500000 97.615 -169.6206
12.650000 97.608 -169.9171
12.800000 97.601 -170.2246
13.150000 97.590 -171.0053
13.200000 97.588 -171.1228
13.400000 97.581 -171.6109
13.600000 97.572 -172.1110
13.800000 97.561 -172.6184
14.000000 97.546 -173.1207
14.300000 97.519 -173.8557
14.500000 97.498 -174.3200
14.750000 97.471 -174.8644
15.000000 97.445 -175.3665
15.250000 97.424 -175.8298
15.500000 97.410 -176.2575
15.750000 97.403 -176.6561
16.000000 97.403 -177.0401
16.250000 97.411 -177.4412
16.500000 97.426 -177.8778
16.750000 97.446 -178.3741
17.000000 97.464 -178.9376
17.250000 97.477 -179.5582
17.500000 97.480 179.7791
17.750000 97.468 179.1235
18.000000 97.444 178.5064
18.250000 97.410 177.9618
18.500000 97.373 177.5147
18.750000 97.339 177.1535
19.000000 97.313 176.8661
19.250000 97.299 176.6040
19.500000 97.296 176.3344
19.750000 97.300 176.0320
20.000000 97.305 175.6775
20.299999 97.309 175.1991
20.600000 97.307 174.6877
20.900000 97.296 174.1771
21.200001 97.281 173.6924
21.400000 97.271 173.3848
21.799999 97.249 172.7936
22.000000 97.239 172.5044
22.400000 97.218 171.9344
22.700001 97.202 171.5268
23.000000 97.189 171.1476
23.299999 97.183 170.7848
23.600000 97.185 170.4071
24.000000 97.197 169.8197
24.299999 97.205 169.2874
24.700001 97.198 168.4865
25.000000 97.173 167.8925
25.400000 97.119 167.2266
25.799999 97.059 166.7718
26.200001 97.015 166.4670
26.500000 96.995 166.2548
26.900000 96.975 165.9272
27.200001 96.955 165.6653
27.600000 96.918 165.3855
28.000000 96.885 165.2757
28.500000 96.888 165.2834
29.000000 96.950 165.0491
29.500000 97.016 164.2734
30.000000 97.012 163.1374
30.400000 96.948 162.3096
30.700001 96.879 161.8699
31.100000 96.794 161.5317
31.500000 96.737 161.3386
32.000000 96.704 161.0269
32.500000 96.680 160.5222
33.000000 96.641 159.9620
33.500000 96.599 159.4865
34.000000 96.574 159.0506
34.500000 96.565 158.5172
35.000000 96.550 157.8658
35.500000 96.514 157.2224
36.000000 96.468 156.7069
36.500000 96.431 156.3099
37.000000 96.409 155.9290
37.500000 96.393 155.4955
38.200001 96.358 154.8439
38.700001 96.326 154.4146
39.500000 96.275 153.7993
40.000000 96.246 153.4163
40.599998 96.211 152.9388
41.200001 96.173 152.4522
41.799999 96.132 151.9703
42.500000 96.084 151.4300
43.099998 96.051 150.9771
43.700001 96.024 150.4885
44.400002 95.991 149.8432
45.000000 95.951 149.2753
45.500000 95.913 148.8442
46.200001 95.860 148.3203
46.799999 95.822 147.9125
47.500000 95.781 147.4544
48.200001 95.742 147.0192
48.700001 95.717 146.7229
49.400002 95.686 146.3101
50.000000 95.662 145.9256
50.799999 95.624 145.3355
51.500000 95.573 144.8000
52.200001 95.510 144.3495
53.000000 95.446 143.9484
53.799999 95.398 143.5161
54.500000 95.355 143.0552
55.200001 95.302 142.6146
56.000000 95.251 142.1975
57.000000 95.210 141.5978
58.000000 95.158 140.9117
59.000000 95.109 140.3086
60.000000 95.062 139.5815
60.799999 94.998 139.0103
61.500000 94.935 138.6348
62.200001 94.879 138.3249
63.000000 94.824 137.9574
64.000000 94.756 137.4225
65.000000 94.680 136.8768
66.000000 94.615 136.3503
67.000000 94.554 135.6888
68.000000 94.469 135.0661
69.000000 94.394 134.6196
70.000000 94.335 134.1786
71.000000 94.278 133.7501
72.000000 94.228 133.3544
73.000000 94.180 132.8922
74.000000 94.118 132.4024
75.000000 94.048 131.9798
76.199997 93.969 131.4916
77.500000 93.889 130.9460
78.800003 93.814 130.3578
80.000000 93.747 129.8469
81.199997 93.688 129.3205
82.500000 93.611 128.7658
83.800003 93.527 128.3146
85.000000 93.444 127.9538
86.199997 93.365 127.6436
87.500000 93.292 127.2005
88.500000 93.227 126.7745
90.000000 93.137 126.1612
91.199997 93.066 125.5796
92.500000 92.978 125.1147
93.800003 92.918 124.7710
95.000000 92.868 124.3952
96.199997 92.809 124.0158
97.500000 92.739 123.6062
98.800003 92.666 123.1992
100.000000 92.600 122.8238
101.500000 92.523 122.3502
103.000000 92.449 121.8961
104.400002 92.380 121.5164
106.000000 92.298 121.0969
107.500000 92.212 120.7146
109.000000 92.128 120.3278
110.599998 92.042 119.8574
112.000000 91.966 119.4317
113.800003 91.869 118.9614
115.000000 91.808 118.7097
117.199997 91.708 118.2659
118.000000 91.673 118.0748
120.599998 91.549 117.3451
122.000000 91.470 116.9685
124.099998 91.364 116.5422
125.000000 91.328 116.3526
126.500000 91.269 115.9953
128.000000 91.207 115.6485
131.500000 91.065 115.0256
132.000000 91.043 114.9448
134.000000 90.948 114.5842
136.000000 90.849 114.1315
138.000000 90.770 113.6507
140.000000 90.714 113.1737
143.000000 90.630 112.5570
145.000000 90.541 112.0984
147.500000 90.438 111.5987
150.000000 90.366 111.1766
152.500000 90.294 110.9566
155.000000 90.175 110.5832
157.500000 90.043 109.9848
160.000000 89.936 109.5138
162.500000 89.874 109.4106
165.000000 89.807 109.2341
167.500000 89.722 108.7769
170.000000 89.638 108.2570
172.500000 89.556 108.0024
175.000000 89.477 107.8763
177.500000 89.408 107.5899
180.000000 89.353 107.3480
182.500000 89.299 107.3140
185.000000 89.193 107.3178
187.500000 89.049 107.1793
190.000000 88.915 106.6764
192.500000 88.778 106.3677
195.000000 88.727 106.5052
197.500000 88.723 106.3800
200.000000 88.705 105.9516
203.000000 88.634 105.1575
206.000000 88.551 104.4582
209.000000 88.476 103.9086
212.000000 88.406 103.5583
214.000000 88.359 103.2917
218.000000 88.253 102.8386
220.000000 88.199 102.7313
224.000000 88.102 102.4848
227.000000 88.041 102.0046
230.000000 87.964 101.6089
233.000000 87.892 101.4986
236.000000 87.835 101.3219
240.000000 87.759 100.9217
243.000000 87.697 100.7231
247.000000 87.609 100.5138
250.000000 87.551 100.2206
254.000000 87.489 99.7552
258.000000 87.428 99.3266
262.000000 87.353 99.0710
265.000000 87.298 98.9930
269.000000 87.232 98.8301
272.000000 87.190 98.5525
276.000000 87.134 98.0605
280.000000 87.082 97.7031
285.000000 87.015 97.5895
290.000000 86.935 97.5965
295.000000 86.869 97.3651
300.000000 86.815 97.1100
304.000000 86.772 96.9386
307.000000 86.737 96.7776
311.000000 86.687 96.6301
315.000000 86.635 96.5477
320.000000 86.575 96.3871
325.000000 86.529 96.2050
330.000000 86.464 95.9864
335.000000 86.389 95.8311
340.000000 86.358 95.5752
345.000000 86.330 95.3804
350.000000 86.238 95.3984
355.000000 86.132 95.1745
360.000000 86.146 94.6295
365.000000 86.207 94.6092
370.000000 86.176 94.7529
375.000000 86.130 94.5662
382.000000 86.102 94.2578
387.000000 86.072 94.1991
395.000000 85.985 94.2453
400.000000 85.947 94.1283
406.000000 85.922 93.9126
412.000000 85.905 93.8405
418.000000 85.881 93.8006
425.000000 85.868 93.7546
431.000000 85.862 93.7374
437.000000 85.755 93.5187
444.000000 85.675 93.3671
450.000000 85.683 93.4751
455.000000 85.690 93.3988
462.000000 85.710 93.3162
468.000000 85.713 93.4322
475.000000 85.689 93.4436
482.000000 85.664 93.4040
487.000000 85.650 93.3793
494.000000 85.641 93.3351
500.000000 85.642 93.3561
508.000000 85.655 93.4156
515.000000 85.651 93.4452
522.000000 85.650 93.4815
530.000000 85.661 93.5397
538.000000 85.670 93.5728
545.000000 85.669 93.6472
552.000000 85.676 93.7888
560.000000 85.685 93.9390
570.000000 85.693 94.0789
580.000000 85.713 94.1836
590.000000 85.739 94.3156
600.000000 85.764 94.4694
608.000000 85.783 94.5940
615.000000 85.798 94.7060
622.000000 85.814 94.8206
630.000000 85.835 94.9394
640.000000 85.857 95.0955
650.000000 85.865 95.3286
660.000000 85.880 95.7406
670.000000 85.920 96.1428
680.000000 85.969 96.4367
690.000000 86.015 96.7178
700.000000 86.061 96.9837
710.000000 86.105 97.2056
720.000000 86.150 97.4464
730.000000 86.189 97.7712
740.000000 86.233 98.1961
750.000000 86.295 98.6275
762.000000 86.376 99.0702
775.000000 86.460 99.4944
788.000000 86.543 99.9337
800.000000 86.622 100.3549
812.000000 86.706 100.7901
825.000000 86.804 101.2526
838.000000 86.905 101.6961
850.000000 87.001 102.1280
862.000000 87.098 102.5786
875.000000 87.207 103.0467
885.000000 87.296 103.3925
900.000000 87.435 103.8966
912.000000 87.550 104.2932
925.000000 87.676 104.7030
938.000000 87.807 105.0880
950.000000 87.929 105.4274
962.000000 88.051 105.7556
975.000000 88.186 106.0803
988.000000 88.324 106.3727
1000.000000 88.454 106.6245
1015.000000 88.617 106.9128
1030.000000 88.779 107.1552
1044.000000 88.930 107.3460
1060.000000 89.106 107.5227
1075.000000 89.271 107.6551
1090.000000 89.441 107.7586
1106.000000 89.627 107.8251
1120.000000 89.790 107.8582
1138.000000 89.998 107.8602
1150.000000 90.134 107.8351
1172.000000 90.381 107.7669
1180.000000 90.470 107.7321
1206.000000 90.749 107.5754
1220.000000 90.897 107.4825
1241.000000 91.119 107.3202
1250.000000 91.213 107.2397
1265.000000 91.368 107.1005
1280.000000 91.521 106.9599
1315.000000 91.863 106.6166
1320.000000 91.910 106.5673
1340.000000 92.088 106.3679
1360.000000 92.243 106.1679
1380.000000 92.394 105.9696
1400.000000 92.558 105.7709
1430.000000 92.806 105.4651
1450.000000 92.968 105.2768
1475.000000 93.167 105.0273
1500.000000 93.365 104.7726
1525.000000 93.556 104.5261
1550.000000 93.742 104.2832
1575.000000 93.932 104.0243
1600.000000 94.120 103.7336
1625.000000 94.300 103.4751
1650.000000 94.475 103.1943
1675.000000 94.650 102.8911
1700.000000 94.823 102.5765
1725.000000 94.994 102.2437
1750.000000 95.162 101.8861
1775.000000 95.326 101.5109
1800.000000 95.486 101.1138
1825.000000 95.642 100.6919
1850.000000 95.796 100.2514
1875.000000 95.948 99.7739
1900.000000 96.096 99.2721
1925.000000 96.239 98.7507
1950.000000 96.377 98.2004
1975.000000 96.510 97.6257
2000.000000 96.638 97.0229
2030.000000 96.785 96.2674
2060.000000 96.922 95.4837
2090.000000 97.049 94.6713
2120.000000 97.167 93.8323
2140.000000 97.241 93.2606
2180.000000 97.373 92.1042
2200.000000 97.430 91.5168
2240.000000 97.525 90.3407
2270.000000 97.581 89.4686
2300.000000 97.627 88.5997
2330.000000 97.661 87.7540
2360.000000 97.684 86.9250
2400.000000 97.699 85.8631
2430.000000 97.697 85.1151
2470.000000 97.681 84.1697
2500.000000 97.658 83.5153
2540.000000 97.615 82.7170
2580.000000 97.559 82.0088
2620.000000 97.494 81.3972
2650.000000 97.439 81.0041
2690.000000 97.359 80.5697
2720.000000 97.295 80.3079
2760.000000 97.207 80.0474
2800.000000 97.118 79.8753
2850.000000 97.001 79.7990
2900.000000 96.883 79.8586
2950.000000 96.772 80.0333
3000.000000 96.667 80.3252
3040.000000 96.589 80.6281
3070.000000 96.534 80.8929
3110.000000 96.468 81.2888
3150.000000 96.406 81.7327
3200.000000 96.331 82.3580
3250.000000 96.262 83.0520
3300.000000 96.205 83.7961
3350.000000 96.160 84.5836
3400.000000 96.124 85.4156
3450.000000 96.103 86.2766
3500.000000 96.098 87.1671
3550.000000 96.104 88.0792
3600.000000 96.120 89.0114
3650.000000 96.145 89.9675
3700.000000 96.181 90.9354
3750.000000 96.233 91.9047
3820.000000 96.332 93.2310
3870.000000 96.419 94.1097
3950.000000 96.579 95.3299
4000.000000 96.687 95.9634
4060.000000 96.819 96.6045
4120.000000 96.955 97.1194
4180.000000 97.096 97.4994
4250.000000 97.258 97.7674
4310.000000 97.391 97.8282
4370.000000 97.512 97.7172
4440.000000 97.631 97.3700
4500.000000 97.713 96.8798
4550.000000 97.762 96.3472
4620.000000 97.792 95.4560
4680.000000 97.779 94.6091
4750.000000 97.717 93.5977
4820.000000 97.607 92.6372
4870.000000 97.503 92.0108
4940.000000 97.325 91.2350
5000.000000 97.145 90.6815
5080.000000 96.867 90.1337
5150.000000 96.593 89.8654
5220.000000 96.296 89.8295
5300.000000 95.936 90.0975
5380.000000 95.561 90.7102
5450.000000 95.230 91.5277
5520.000000 94.904 92.5922
5600.000000 94.544 94.0953
5700.000000 94.113 96.3722
5800.000000 93.726 99.0133
5900.000000 93.387 101.9497
6000.000000 93.083 105.1539
6080.000000 92.874 107.8624
6150.000000 92.722 110.3248
6220.000000 92.602 112.8528
6300.000000 92.505 115.8009
6400.000000 92.441 119.5397
6500.000000 92.451 123.2408
6600.000000 92.534 126.7936
6700.000000 92.688 130.0559
6800.000000 92.909 132.8975
6900.000000 93.195 135.2042
7000.000000 93.526 136.8594
7100.000000 93.857 137.7887
7200.000000 94.138 137.9684
7300.000000 94.313 137.5170
7400.000000 94.340 136.7655
7500.000000 94.213 136.2264
7620.000000 93.918 136.5447
7750.000000 93.559 138.5699
7880.000000 93.264 142.1523
8000.000000 93.169 146.0171
8120.000000 93.264 149.4780
8250.000000 93.487 152.1671
8380.000000 93.731 153.7157
8500.000000 93.924 154.1617
8620.000000 94.020 153.6394
8750.000000 93.913 152.3564
8850.000000 93.650 151.4601
9000.000000 93.020 151.3383
9120.000000 92.424 152.6787
9250.000000 91.797 155.4462
9380.000000 91.251 159.2687
9500.000000 90.850 163.4747
9620.000000 90.566 168.1262
9750.000000 90.408 173.4591
9880.000000 90.416 178.8969
10000.000000 90.579 -176.1742
10150.000000 91.001 -170.4317
10300.000000 91.683 -165.6058
10440.000000 92.560 -162.5700
10600.000000 93.777 -162.0228
10750.000000 94.905 -165.7717
10900.000000 95.632 -174.3169
11060.000000 95.561 173.3104
11200.000000 94.683 163.4941
11380.000000 92.742 156.4658
11500.000000 91.238 155.5397
11720.000000 88.614 159.3559
11800.000000 87.770 161.9077
12060.000000 85.474 172.6165
12200.000000 84.493 179.3503
12410.000000 83.308 -169.8556
12500.000000 82.897 -165.0697
12650.000000 82.334 -156.9765
12800.000000 81.921 -148.8247
13150.000000 81.531 -130.0766
13200.000000 81.542 -127.4790
13400.000000 81.760 -117.4616
13600.000000 82.275 -108.3349
13800.000000 83.112 -100.6590
14000.000000 84.249 -95.3112
14300.000000 86.157 -94.3241
14500.000000 87.095 -99.5359
14750.000000 87.334 -110.1985
15000.000000 86.543 -119.3685
15250.000000 85.365 -124.3689
15500.000000 84.407 -128.7031
15750.000000 83.435 -136.7388
16000.000000 81.600 -146.5190
16250.000000 78.562 -150.1473
16500.000000 74.860 -144.1455
16750.000000 71.354 -131.3546
17000.000000 68.594 -116.0635
17250.000000 66.547 -101.4991
17500.000000 64.737 -88.2877
17750.000000 62.734 -74.2803
18000.000000 60.514 -56.8084
18250.000000 58.427 -35.0211
18500.000000 57.032 -10.4778
18750.000000 56.726 14.1251
19000.000000 57.213 36.5267
19250.000000 57.761 56.0196
19500.000000 57.856 73.8396
19750.000000 57.441 93.7251
20000.000000 57.498 121.0761
20300.000000 60.857 159.3217
20600.000000 64.584 177.0868
20900.000000 66.088 172.4277
21200.000000 66.211 142.2504
21400.000000 66.062 33.3325
21800.000000 64.927 142.7134
22000.000000 63.435 -7.9753
22400.000000 58.371 116.3955
22700.000000 53.538 57.6680
23000.000000 49.240 -135.0195
23300.000000 47.102 -56.3203
23600.000000 46.490 -65.7188
24000.000000 46.187 122.3047
