* Measurement data measured by REW V5.20.13
* Source: Headset (DS by VECLAN.COM), MICROPHONE (Master Volume), L, volume: 0.880. Timing signal peak level -18.4 dBFS, measurement signal peak level -16.0 dBFS
* Format: 2M Log Swept Sine, 1 sweep at -12.0 dBFS using an acoustic timing reference
* Dated: Nov 11, 2023 5:53:26 PM
* REW Settings:
*  C-weighting compensation: Off
*  Target level: 75.0 dB
* Note: ; Delay -0.0702 ms (-24 mm, -0.95 in) using estimated IR delay relative to Acoustic reference played from HEADPHONE L with no timing offset
* Measurement: Hyla CE-5 L
* Smoothing: 1/24 octave
* Frequency Step: 1/48 octave
* Start Frequency: 1.000 Hz
*
* Freq(Hz) SPL(dB) Phase(degrees)
1.000000 81.065 -98.1952
1.015000 81.643 -97.9819
1.030000 82.195 -97.7942
1.044000 82.683 -97.6436
1.060000 83.205 -97.5022
1.075000 83.654 -97.4010
1.090000 84.059 -97.3318
1.106000 84.441 -97.2967
1.120000 84.752 -97.3083
1.138000 85.125 -97.3795
1.150000 85.358 -97.4596
1.172000 85.754 -97.6677
1.180000 85.890 -97.7613
1.206000 86.297 -98.1232
1.220000 86.498 -98.3502
1.241000 86.778 -98.7252
1.250000 86.890 -98.8966
1.265000 87.068 -99.1938
1.280000 87.236 -99.5025
1.315000 87.593 -100.2484
1.320000 87.641 -100.3560
1.340000 87.824 -100.7841
1.360000 87.998 -101.2025
1.380000 88.166 -101.6029
1.400000 88.330 -101.9773
1.430000 88.572 -102.4727
1.450000 88.736 -102.7470
1.475000 88.945 -103.0167
1.500000 89.136 -103.2339
1.525000 89.305 -103.4121
1.550000 89.454 -103.5577
1.575000 89.587 -103.6769
1.600000 89.704 -103.7760
1.625000 89.809 -103.8613
1.650000 89.904 -103.9390
1.675000 89.990 -104.0155
1.700000 90.071 -104.0970
1.725000 90.148 -104.1898
1.750000 90.224 -104.3002
1.775000 90.301 -104.4344
1.800000 90.382 -104.5988
1.825000 90.468 -104.7996
1.850000 90.558 -105.0381
1.875000 90.644 -105.3040
1.900000 90.725 -105.5935
1.925000 90.802 -105.9035
1.950000 90.876 -106.2307
1.975000 90.948 -106.5718
2.000000 91.017 -106.9237
2.030000 91.098 -107.3555
2.060000 91.177 -107.7926
2.090000 91.256 -108.2292
2.120000 91.336 -108.6597
2.140000 91.390 -108.9407
2.180000 91.500 -109.4805
2.200000 91.558 -109.7361
2.240000 91.675 -110.2329
2.270000 91.764 -110.5990
2.300000 91.854 -110.9605
2.330000 91.944 -111.3182
2.360000 92.034 -111.6730
2.400000 92.153 -112.1429
2.430000 92.242 -112.4940
2.470000 92.357 -112.9619
2.500000 92.442 -113.3137
2.540000 92.551 -113.7856
2.580000 92.655 -114.2618
2.620000 92.755 -114.7387
2.650000 92.828 -115.0962
2.690000 92.923 -115.5728
2.720000 92.992 -115.9303
2.760000 93.083 -116.4074
2.800000 93.171 -116.8851
2.850000 93.279 -117.4835
2.900000 93.385 -118.0836
2.950000 93.489 -118.6871
3.000000 93.591 -119.3017
3.040000 93.670 -119.7992
3.070000 93.728 -120.1737
3.110000 93.805 -120.6723
3.150000 93.879 -121.1673
3.200000 93.971 -121.7762
3.250000 94.060 -122.3686
3.300000 94.147 -122.9383
3.350000 94.232 -123.4825
3.400000 94.315 -124.0055
3.450000 94.395 -124.5132
3.500000 94.473 -125.0111
3.550000 94.549 -125.5048
3.600000 94.623 -126.0000
3.650000 94.696 -126.5022
3.700000 94.767 -127.0155
3.750000 94.835 -127.5362
3.820000 94.929 -128.2697
3.870000 94.993 -128.7911
3.950000 95.094 -129.6092
4.000000 95.155 -130.1040
4.060000 95.228 -130.6745
4.120000 95.299 -131.2207
4.180000 95.369 -131.7494
4.250000 95.448 -132.3528
4.310000 95.514 -132.8659
4.370000 95.579 -133.3824
4.440000 95.652 -133.9953
4.500000 95.713 -134.5245
4.550000 95.762 -134.9657
4.620000 95.830 -135.5800
4.680000 95.886 -136.1002
4.750000 95.950 -136.6956
4.820000 96.013 -137.2762
4.870000 96.056 -137.6838
4.940000 96.116 -138.2462
5.000000 96.165 -138.7221
5.080000 96.229 -139.3503
5.150000 96.283 -139.8963
5.220000 96.334 -140.4394
5.300000 96.390 -141.0542
5.380000 96.444 -141.6598
5.450000 96.489 -142.1796
5.520000 96.533 -142.6883
5.600000 96.580 -143.2588
5.700000 96.636 -143.9553
5.800000 96.690 -144.6309
5.900000 96.740 -145.2833
6.000000 96.788 -145.9129
6.080000 96.824 -146.4010
6.150000 96.854 -146.8171
6.220000 96.884 -147.2233
6.300000 96.918 -147.6750
6.400000 96.958 -148.2207
6.500000 96.997 -148.7463
6.600000 97.036 -149.2532
6.700000 97.074 -149.7378
6.800000 97.112 -150.2022
6.900000 97.151 -150.6540
7.000000 97.189 -151.0993
7.100000 97.229 -151.5328
7.200000 97.269 -151.9576
7.300000 97.308 -152.3790
7.400000 97.348 -152.7991
7.500000 97.389 -153.2146
7.620000 97.437 -153.7121
7.750000 97.487 -154.2566
7.880000 97.537 -154.8055
8.000000 97.581 -155.3139
8.120000 97.622 -155.8238
8.250000 97.665 -156.3795
8.380000 97.704 -156.9327
8.500000 97.737 -157.4377
8.620000 97.767 -157.9398
8.750000 97.797 -158.4743
8.850000 97.818 -158.8751
9.000000 97.845 -159.4630
9.120000 97.865 -159.9195
9.250000 97.886 -160.3971
9.380000 97.906 -160.8582
9.500000 97.922 -161.2739
9.620000 97.936 -161.6815
9.750000 97.948 -162.1124
9.880000 97.955 -162.5380
10.000000 97.953 -162.9289
10.150000 97.943 -163.4120
10.300000 97.925 -163.8868
10.440000 97.901 -164.3224
10.600000 97.868 -164.8116
10.750000 97.838 -165.2620
10.900000 97.806 -165.7043
11.060000 97.771 -166.1679
11.200000 97.741 -166.5683
11.380000 97.703 -167.0613
11.500000 97.676 -167.3728
11.720000 97.629 -167.9138
11.800000 97.614 -168.0997
12.060000 97.570 -168.6732
12.200000 97.553 -168.9769
12.410000 97.532 -169.4277
12.500000 97.525 -169.6252
12.650000 97.515 -169.9577
12.800000 97.506 -170.2995
13.150000 97.487 -171.1489
13.200000 97.484 -171.2742
13.400000 97.472 -171.7895
13.600000 97.458 -172.3033
13.800000 97.441 -172.8091
14.000000 97.422 -173.2875
14.300000 97.390 -173.9433
14.500000 97.370 -174.3246
14.750000 97.352 -174.7533
15.000000 97.345 -175.1416
15.250000 97.354 -175.5352
15.500000 97.374 -175.9688
15.750000 97.402 -176.4630
16.000000 97.429 -177.0404
16.250000 97.449 -177.6919
16.500000 97.458 -178.3990
16.750000 97.452 -179.1272
17.000000 97.432 -179.8192
17.250000 97.399 179.5552
17.500000 97.357 179.0322
17.750000 97.316 178.6227
18.000000 97.280 178.3086
18.250000 97.255 178.0686
18.500000 97.244 177.8427
18.750000 97.246 177.5944
19.000000 97.258 177.2896
19.250000 97.272 176.9044
19.500000 97.283 176.4546
19.750000 97.286 175.9542
20.000000 97.279 175.4461
20.299999 97.257 174.8717
20.600000 97.228 174.3727
20.900000 97.199 173.9673
21.200001 97.177 173.6444
21.400000 97.170 173.4529
21.799999 97.175 173.0709
22.000000 97.186 172.8495
22.400000 97.218 172.2900
22.700001 97.243 171.7486
23.000000 97.258 171.1105
23.299999 97.255 170.4194
23.600000 97.232 169.7389
24.000000 97.171 168.9653
24.299999 97.115 168.5603
24.700001 97.046 168.2750
25.000000 97.014 168.1935
25.400000 97.005 168.1179
25.799999 97.025 167.9091
26.200001 97.050 167.4814
26.500000 97.059 167.0370
26.900000 97.046 166.3536
27.200001 97.017 165.8325
27.600000 96.955 165.1917
28.000000 96.870 164.6804
28.500000 96.750 164.3280
29.000000 96.655 164.3317
29.500000 96.629 164.4948
30.000000 96.677 164.3969
30.400000 96.734 163.9272
30.700001 96.765 163.3573
31.100000 96.772 162.4601
31.500000 96.742 161.5973
32.000000 96.680 160.7615
32.500000 96.632 160.1638
33.000000 96.609 159.6176
33.500000 96.597 159.0259
34.000000 96.582 158.4292
34.500000 96.566 157.8834
35.000000 96.553 157.3744
35.500000 96.537 156.8693
36.000000 96.513 156.3853
36.500000 96.481 155.9685
37.000000 96.450 155.6268
37.500000 96.426 155.3110
38.200001 96.400 154.7983
38.700001 96.377 154.3580
39.500000 96.321 153.6203
40.000000 96.280 153.1975
40.599998 96.236 152.7277
41.200001 96.201 152.2402
41.799999 96.166 151.7089
42.500000 96.120 151.0970
43.099998 96.084 150.6289
43.700001 96.058 150.1633
44.400002 96.028 149.5484
45.000000 95.988 149.0091
45.500000 95.948 148.6267
46.200001 95.901 148.1897
46.799999 95.876 147.7891
47.500000 95.846 147.2034
48.200001 95.800 146.6004
48.700001 95.763 146.2299
49.400002 95.720 145.7701
50.000000 95.693 145.3510
50.799999 95.654 144.7211
51.500000 95.606 144.1852
52.200001 95.552 143.7478
53.000000 95.501 143.3418
53.799999 95.466 142.8803
54.500000 95.431 142.3669
55.200001 95.381 141.8210
56.000000 95.313 141.2633
57.000000 95.236 140.6787
58.000000 95.185 140.0738
59.000000 95.138 139.3321
60.000000 95.070 138.6181
60.799999 95.016 138.1786
61.500000 94.976 137.8208
62.200001 94.933 137.4580
63.000000 94.876 137.1117
64.000000 94.817 136.7570
65.000000 94.768 136.2845
66.000000 94.708 135.7058
67.000000 94.639 135.0867
68.000000 94.563 134.4786
69.000000 94.493 133.9207
70.000000 94.438 133.3363
71.000000 94.381 132.6804
72.000000 94.310 132.1196
73.000000 94.254 131.6958
74.000000 94.205 131.2122
75.000000 94.138 130.7619
76.199997 94.060 130.3798
77.500000 93.985 129.9279
78.800003 93.908 129.4039
80.000000 93.830 128.8162
81.199997 93.745 128.2356
82.500000 93.663 127.6268
83.800003 93.585 126.9857
85.000000 93.512 126.4692
86.199997 93.450 126.0087
87.500000 93.386 125.4821
88.500000 93.331 125.0409
90.000000 93.232 124.4042
91.199997 93.144 123.9659
92.500000 93.058 123.6424
93.800003 93.000 123.3209
95.000000 92.949 122.9336
96.199997 92.890 122.5407
97.500000 92.823 122.1136
98.800003 92.751 121.6724
100.000000 92.684 121.2632
101.500000 92.600 120.7408
103.000000 92.518 120.2356
104.400002 92.437 119.7994
106.000000 92.345 119.3868
107.500000 92.262 119.0749
109.000000 92.192 118.6866
110.599998 92.103 118.1992
112.000000 92.030 117.8004
113.800003 91.933 117.1525
115.000000 91.857 116.7703
117.199997 91.751 116.2211
118.000000 91.722 115.9564
120.599998 91.587 115.1429
122.000000 91.523 114.9215
124.099998 91.450 114.5010
125.000000 91.415 114.2678
126.500000 91.350 113.8369
128.000000 91.278 113.3765
131.500000 91.103 112.3763
132.000000 91.078 112.2583
134.000000 90.985 111.9121
136.000000 90.913 111.6141
138.000000 90.839 111.2498
140.000000 90.759 110.8728
143.000000 90.650 110.2318
145.000000 90.564 109.7317
147.500000 90.470 109.1243
150.000000 90.389 108.5000
152.500000 90.300 108.0633
155.000000 90.219 107.9151
157.500000 90.135 107.4346
160.000000 90.006 106.9164
162.500000 89.918 106.5858
165.000000 89.848 106.1556
167.500000 89.760 105.7031
170.000000 89.670 105.2691
172.500000 89.565 104.9904
175.000000 89.456 104.9081
177.500000 89.379 104.8436
180.000000 89.321 104.5667
182.500000 89.261 104.1276
185.000000 89.175 103.5590
187.500000 89.088 102.9896
190.000000 89.013 102.4696
192.500000 88.942 102.1196
195.000000 88.886 101.8206
197.500000 88.827 101.4395
200.000000 88.767 101.2392
203.000000 88.687 101.0314
206.000000 88.539 100.9031
209.000000 88.399 100.8717
212.000000 88.311 100.5185
214.000000 88.274 100.0875
218.000000 88.219 99.2039
220.000000 88.191 98.8888
224.000000 88.087 98.2966
227.000000 87.965 98.1456
230.000000 87.883 98.1390
233.000000 87.823 97.9075
236.000000 87.763 97.5009
240.000000 87.704 96.9814
243.000000 87.667 96.7730
247.000000 87.589 96.4906
250.000000 87.509 96.2548
254.000000 87.412 95.9792
258.000000 87.350 95.5507
262.000000 87.284 95.1884
265.000000 87.228 95.0150
269.000000 87.170 94.6454
272.000000 87.133 94.4187
276.000000 87.068 94.3908
280.000000 86.971 94.4505
285.000000 86.856 94.3409
290.000000 86.811 94.0265
295.000000 86.726 93.5480
300.000000 86.603 92.7438
304.000000 86.479 92.4269
307.000000 86.429 92.5479
311.000000 86.458 92.6479
315.000000 86.463 92.5384
320.000000 86.402 92.4030
325.000000 86.363 92.0037
330.000000 86.333 91.7844
335.000000 86.285 91.7458
340.000000 86.200 91.5495
345.000000 86.132 91.4019
350.000000 86.099 91.1998
355.000000 86.081 90.8375
360.000000 86.049 90.4502
365.000000 86.011 90.3603
370.000000 85.967 90.4136
375.000000 85.902 90.3767
382.000000 85.837 90.2018
387.000000 85.791 90.0779
395.000000 85.723 89.9590
400.000000 85.700 89.8302
406.000000 85.673 89.7079
412.000000 85.644 89.7347
418.000000 85.622 89.8035
425.000000 85.575 89.7998
431.000000 85.527 89.7894
437.000000 85.487 89.7022
444.000000 85.446 89.5374
450.000000 85.429 89.4153
455.000000 85.433 89.3911
462.000000 85.435 89.3622
468.000000 85.389 89.2804
475.000000 85.308 89.4057
482.000000 85.287 89.6090
487.000000 85.287 89.7092
494.000000 85.295 89.7078
500.000000 85.294 89.6491
508.000000 85.281 89.6676
515.000000 85.287 89.7327
522.000000 85.292 89.8591
530.000000 85.294 90.0043
538.000000 85.296 90.0642
545.000000 85.295 90.1217
552.000000 85.298 90.1974
560.000000 85.303 90.3378
570.000000 85.307 90.6729
580.000000 85.320 91.1374
590.000000 85.341 91.2685
600.000000 85.347 91.1819
608.000000 85.364 91.2864
615.000000 85.380 91.4306
622.000000 85.404 91.5901
630.000000 85.427 91.8449
640.000000 85.427 92.1708
650.000000 85.428 92.5206
660.000000 85.456 92.9797
670.000000 85.509 93.3656
680.000000 85.567 93.6855
690.000000 85.612 94.0089
700.000000 85.650 94.3434
710.000000 85.691 94.7080
720.000000 85.738 95.0892
730.000000 85.789 95.4745
740.000000 85.848 95.8750
750.000000 85.917 96.2419
762.000000 85.996 96.6277
775.000000 86.070 97.0807
788.000000 86.149 97.5967
800.000000 86.230 98.0618
812.000000 86.316 98.5193
825.000000 86.411 99.0427
838.000000 86.511 99.5757
850.000000 86.607 100.0560
862.000000 86.708 100.5137
875.000000 86.821 101.0014
885.000000 86.912 101.3711
900.000000 87.053 101.9077
912.000000 87.171 102.3256
925.000000 87.301 102.7635
938.000000 87.435 103.1750
950.000000 87.563 103.5367
962.000000 87.691 103.8760
975.000000 87.829 104.2192
988.000000 87.966 104.5341
1000.000000 88.094 104.7986
1015.000000 88.256 105.0989
1030.000000 88.420 105.3589
1044.000000 88.573 105.5682
1060.000000 88.749 105.7672
1075.000000 88.915 105.9048
1090.000000 89.084 106.0082
1106.000000 89.270 106.0905
1120.000000 89.434 106.1320
1138.000000 89.643 106.1486
1150.000000 89.780 106.1381
1172.000000 90.027 106.0800
1180.000000 90.114 106.0493
1206.000000 90.393 105.9185
1220.000000 90.542 105.8326
1241.000000 90.762 105.6935
1250.000000 90.856 105.6273
1265.000000 91.009 105.5042
1280.000000 91.160 105.3708
1315.000000 91.499 105.0644
1320.000000 91.545 105.0191
1340.000000 91.722 104.8395
1360.000000 91.877 104.6595
1380.000000 92.027 104.4803
1400.000000 92.190 104.3171
1430.000000 92.439 104.0465
1450.000000 92.603 103.8707
1475.000000 92.804 103.6540
1500.000000 93.000 103.4399
1525.000000 93.191 103.2252
1550.000000 93.377 103.0005
1575.000000 93.559 102.7740
1600.000000 93.739 102.5347
1625.000000 93.917 102.2903
1650.000000 94.095 102.0446
1675.000000 94.280 101.7616
1700.000000 94.463 101.4574
1725.000000 94.638 101.1568
1750.000000 94.805 100.8317
1775.000000 94.969 100.4866
1800.000000 95.133 100.1133
1825.000000 95.297 99.7045
1850.000000 95.456 99.2775
1875.000000 95.612 98.8255
1900.000000 95.762 98.3413
1925.000000 95.908 97.8337
1950.000000 96.049 97.2958
1975.000000 96.186 96.7276
2000.000000 96.318 96.1361
2030.000000 96.470 95.3907
2060.000000 96.612 94.6082
2090.000000 96.744 93.8032
2120.000000 96.866 92.9656
2140.000000 96.942 92.3945
2180.000000 97.081 91.2321
2200.000000 97.141 90.6405
2240.000000 97.244 89.4489
2270.000000 97.306 88.5565
2300.000000 97.356 87.6736
2330.000000 97.395 86.8000
2360.000000 97.422 85.9485
2400.000000 97.441 84.8555
2430.000000 97.444 84.0690
2470.000000 97.430 83.0880
2500.000000 97.409 82.3966
2540.000000 97.371 81.5471
2580.000000 97.319 80.7886
2620.000000 97.254 80.1239
2650.000000 97.199 79.6972
2690.000000 97.119 79.2078
2720.000000 97.057 78.9042
2760.000000 96.967 78.5888
2800.000000 96.873 78.3678
2850.000000 96.753 78.2209
2900.000000 96.633 78.2106
2950.000000 96.515 78.3296
3000.000000 96.402 78.5686
3040.000000 96.317 78.8347
3070.000000 96.256 79.0757
3110.000000 96.178 79.4545
3150.000000 96.103 79.8914
3200.000000 96.021 80.5020
3250.000000 95.949 81.1880
3300.000000 95.886 81.9317
3350.000000 95.833 82.7222
3400.000000 95.793 83.5506
3450.000000 95.767 84.4120
3500.000000 95.757 85.2934
3550.000000 95.760 86.1877
3600.000000 95.773 87.0876
3650.000000 95.794 87.9970
3700.000000 95.822 88.9114
3750.000000 95.862 89.8169
3820.000000 95.936 91.0707
3870.000000 96.002 91.9388
3950.000000 96.132 93.2304
4000.000000 96.228 93.9379
4060.000000 96.354 94.6609
4120.000000 96.484 95.2388
4180.000000 96.616 95.6649
4250.000000 96.769 95.9724
4310.000000 96.892 96.0746
4370.000000 96.998 96.0235
4440.000000 97.102 95.7602
4500.000000 97.171 95.3732
4550.000000 97.212 94.9455
4620.000000 97.234 94.2250
4680.000000 97.219 93.5494
4750.000000 97.164 92.7429
4820.000000 97.072 91.9708
4870.000000 96.983 91.4521
4940.000000 96.830 90.7849
5000.000000 96.672 90.2913
5080.000000 96.422 89.7841
5150.000000 96.171 89.5302
5220.000000 95.897 89.4841
5300.000000 95.566 89.7111
5380.000000 95.221 90.2523
5450.000000 94.914 90.9824
5520.000000 94.609 91.9498
5600.000000 94.269 93.3196
5700.000000 93.861 95.4044
5800.000000 93.484 97.8482
5900.000000 93.153 100.5830
6000.000000 92.870 103.5641
6080.000000 92.682 106.0920
6150.000000 92.546 108.3884
6220.000000 92.441 110.7337
6300.000000 92.360 113.4399
6400.000000 92.321 116.7960
6500.000000 92.349 120.0410
6600.000000 92.449 123.0663
6700.000000 92.617 125.7401
6800.000000 92.851 127.9002
6900.000000 93.152 129.3542
7000.000000 93.487 129.9106
7100.000000 93.797 129.3943
7200.000000 94.008 127.7348
7300.000000 94.035 125.0635
7400.000000 93.805 121.8205
7500.000000 93.272 118.7041
7620.000000 92.216 116.3418
7750.000000 90.577 117.6424
7880.000000 88.505 126.6946
8000.000000 87.068 144.4648
8120.000000 87.797 165.5349
8250.000000 90.260 179.5526
8380.000000 92.445 -178.5945
8500.000000 93.725 177.0606
8620.000000 94.351 171.0133
8750.000000 94.450 164.9194
8850.000000 94.227 161.2944
9000.000000 93.608 158.0516
9120.000000 92.995 157.3077
9250.000000 92.311 158.0602
9380.000000 91.667 160.0759
9500.000000 91.136 162.8004
9620.000000 90.680 166.2104
9750.000000 90.292 170.5759
9880.000000 90.047 175.4880
10000.000000 89.970 -179.6946
10150.000000 90.102 -173.6456
10300.000000 90.508 -168.0457
10440.000000 91.143 -163.7827
10600.000000 92.145 -160.9995
10750.000000 93.229 -161.6415
10900.000000 94.182 -166.5746
11060.000000 94.641 -176.3799
11200.000000 94.313 173.5630
11380.000000 92.917 163.6302
11500.000000 91.603 160.4389
11720.000000 89.038 160.7796
11800.000000 88.149 162.3619
12060.000000 85.607 171.0473
12200.000000 84.486 177.2086
12410.000000 83.115 -172.5300
12500.000000 82.632 -167.9103
12650.000000 81.957 -160.0458
12800.000000 81.435 -152.0676
13150.000000 80.773 -133.5029
13200.000000 80.740 -130.8985
13400.000000 80.769 -120.7282
13600.000000 81.069 -111.1764
13800.000000 81.661 -102.6521
14000.000000 82.545 -95.7547
14300.000000 84.253 -90.3261
14500.000000 85.362 -91.2353
14750.000000 86.270 -97.2131
15000.000000 86.478 -105.7366
15250.000000 86.123 -114.4417
15500.000000 85.414 -122.9959
15750.000000 84.376 -132.3810
16000.000000 82.705 -141.8223
16250.000000 80.224 -147.5615
16500.000000 77.211 -147.2830
16750.000000 74.137 -142.1102
17000.000000 71.279 -134.1318
17250.000000 68.664 -124.7107
17500.000000 66.204 -114.5062
17750.000000 63.735 -103.3001
18000.000000 61.124 -89.6561
18250.000000 58.448 -72.5829
18500.000000 55.972 -51.8975
18750.000000 54.135 -27.9829
19000.000000 53.331 -2.8173
19250.000000 53.356 20.6131
19500.000000 53.597 39.9962
19750.000000 53.613 54.5693
20000.000000 53.201 64.5090
20300.000000 52.116 69.1677
20600.000000 50.938 58.4773
20900.000000 52.958 4.9681
21200.000000 58.715 -143.3159
21400.000000 62.320 82.9172
21800.000000 66.476 84.9800
22000.000000 66.558 -116.6748
22400.000000 62.845 -96.5464
22700.000000 57.683 85.0527
23000.000000 51.993 -151.3926
23300.000000 48.295 -162.7031
23600.000000 47.822 23.5781
24000.000000 49.067 145.6172
