* Measurement data measured by REW V5.20.13
* Source: Headset (DS by VECLAN.COM), MICROPHONE (Master Volume), L, volume: 1.000. Timing signal peak level -14.9 dBFS, measurement signal peak level -11.0 dBFS
* Format: 4M Log Swept Sine, 1 sweep at -12.0 dBFS using an acoustic timing reference
* Dated: Aug 27, 2023 1:56:53 PM
* REW Settings:
*  C-weighting compensation: Off
*  Target level: 75.0 dB
* Note: ; Delay -0.0697 ms (-24 mm, -0.94 in) using estimated IR delay relative to Acoustic reference played from HEADPHONE R with no timing offset
* Measurement: IER M9 R
* Smoothing: 1/24 octave
* Frequency Step: 1/48 octave
* Start Frequency: 1.000 Hz
*
* Freq(Hz) SPL(dB) Phase(degrees)
1.000000 81.899 -101.9253
1.015000 82.564 -103.0771
1.030000 83.198 -104.1593
1.044000 83.759 -105.1016
1.060000 84.355 -106.0927
1.075000 84.866 -106.9331
1.090000 85.325 -107.6821
1.106000 85.754 -108.3707
1.120000 86.100 -108.8608
1.138000 86.514 -109.3426
1.150000 86.771 -109.5782
1.172000 87.205 -109.8498
1.180000 87.352 -109.9016
1.206000 87.792 -109.9191
1.220000 88.007 -109.8451
1.241000 88.304 -109.6447
1.250000 88.422 -109.5313
1.265000 88.609 -109.3128
1.280000 88.785 -109.0653
1.315000 89.155 -108.4263
1.320000 89.204 -108.3329
1.340000 89.393 -107.9675
1.360000 89.574 -107.6314
1.380000 89.748 -107.3459
1.400000 89.920 -107.1326
1.430000 90.179 -106.9953
1.450000 90.358 -107.0567
1.475000 90.591 -107.3325
1.500000 90.807 -107.7523
1.525000 91.003 -108.2795
1.550000 91.180 -108.8978
1.575000 91.340 -109.5907
1.600000 91.486 -110.3417
1.625000 91.620 -111.1344
1.650000 91.742 -111.9523
1.675000 91.857 -112.7790
1.700000 91.965 -113.5981
1.725000 92.070 -114.3930
1.750000 92.172 -115.1473
1.775000 92.274 -115.8446
1.800000 92.378 -116.4683
1.825000 92.487 -117.0022
1.850000 92.598 -117.4426
1.875000 92.704 -117.8169
1.900000 92.805 -118.1346
1.925000 92.902 -118.4043
1.950000 92.995 -118.6344
1.975000 93.084 -118.8334
2.000000 93.171 -119.0098
2.030000 93.271 -119.2035
2.060000 93.369 -119.3915
2.090000 93.465 -119.5885
2.120000 93.560 -119.8091
2.140000 93.622 -119.9764
2.180000 93.749 -120.3795
2.200000 93.813 -120.6238
2.240000 93.940 -121.1698
2.270000 94.035 -121.6134
2.300000 94.128 -122.0812
2.330000 94.220 -122.5682
2.360000 94.310 -123.0700
2.400000 94.427 -123.7539
2.430000 94.513 -124.2718
2.470000 94.624 -124.9600
2.500000 94.705 -125.4685
2.540000 94.808 -126.1272
2.580000 94.907 -126.7575
2.620000 95.001 -127.3833
2.650000 95.069 -127.8527
2.690000 95.156 -128.4763
2.720000 95.218 -128.9408
2.760000 95.298 -129.5537
2.800000 95.375 -130.1566
2.850000 95.467 -130.8919
2.900000 95.556 -131.6019
2.950000 95.641 -132.2798
3.000000 95.722 -132.9161
3.040000 95.783 -133.4007
3.070000 95.828 -133.7540
3.110000 95.884 -134.2162
3.150000 95.938 -134.6740
3.200000 96.003 -135.2494
3.250000 96.064 -135.8395
3.300000 96.123 -136.4562
3.350000 96.178 -137.1108
3.400000 96.230 -137.7951
3.450000 96.278 -138.4934
3.500000 96.323 -139.1901
3.550000 96.365 -139.8696
3.600000 96.405 -140.5161
3.650000 96.444 -141.1142
3.700000 96.480 -141.6517
3.750000 96.513 -142.1366
3.820000 96.556 -142.7528
3.870000 96.584 -143.1668
3.950000 96.626 -143.8214
4.000000 96.650 -144.2468
4.060000 96.679 -144.7931
4.120000 96.706 -145.3678
4.180000 96.731 -145.9547
4.250000 96.757 -146.6355
4.310000 96.779 -147.1987
4.370000 96.800 -147.7277
4.440000 96.824 -148.2854
4.500000 96.842 -148.7186
4.550000 96.857 -149.0573
4.620000 96.877 -149.5119
4.680000 96.893 -149.8963
4.750000 96.911 -150.3557
4.820000 96.930 -150.8349
4.870000 96.943 -151.1810
4.940000 96.960 -151.6657
5.000000 96.974 -152.0768
5.080000 96.993 -152.6110
5.150000 97.008 -153.0587
5.220000 97.023 -153.4877
5.300000 97.040 -153.9614
5.380000 97.055 -154.4237
5.450000 97.068 -154.8244
5.520000 97.080 -155.2258
5.600000 97.093 -155.6819
5.700000 97.107 -156.2449
5.800000 97.121 -156.7980
5.900000 97.132 -157.3397
6.000000 97.142 -157.8734
6.080000 97.148 -158.2921
6.150000 97.153 -158.6502
6.220000 97.158 -158.9984
6.300000 97.162 -159.3834
6.400000 97.166 -159.8477
6.500000 97.168 -160.2965
6.600000 97.170 -160.7331
6.700000 97.172 -161.1597
6.800000 97.173 -161.5736
6.900000 97.173 -161.9715
7.000000 97.174 -162.3501
7.100000 97.174 -162.7079
7.200000 97.175 -163.0496
7.300000 97.175 -163.3808
7.400000 97.177 -163.7044
7.500000 97.178 -164.0173
7.620000 97.181 -164.3797
7.750000 97.184 -164.7570
7.880000 97.188 -165.1167
8.000000 97.192 -165.4368
8.120000 97.196 -165.7492
8.250000 97.200 -166.0777
8.380000 97.204 -166.3942
8.500000 97.208 -166.6747
8.620000 97.211 -166.9446
8.750000 97.215 -167.2239
8.850000 97.217 -167.4286
9.000000 97.221 -167.7195
9.120000 97.224 -167.9393
9.250000 97.229 -168.1643
9.380000 97.236 -168.3751
9.500000 97.241 -168.5628
9.620000 97.246 -168.7454
9.750000 97.249 -168.9359
9.880000 97.248 -169.1261
10.000000 97.241 -169.3051
10.150000 97.224 -169.5295
10.300000 97.202 -169.7513
10.440000 97.173 -169.9555
10.600000 97.136 -170.1865
10.750000 97.102 -170.4009
10.900000 97.066 -170.6129
11.060000 97.028 -170.8369
11.200000 96.994 -171.0323
11.380000 96.950 -171.2704
11.500000 96.919 -171.4177
11.720000 96.863 -171.6687
11.800000 96.844 -171.7529
12.060000 96.784 -172.0073
12.200000 96.756 -172.1437
12.410000 96.715 -172.3463
12.500000 96.698 -172.4341
12.650000 96.670 -172.5815
12.800000 96.641 -172.7286
13.150000 96.571 -173.0684
13.200000 96.561 -173.1145
13.400000 96.521 -173.2930
13.600000 96.482 -173.4547
13.800000 96.446 -173.5951
14.000000 96.413 -173.7225
14.300000 96.370 -173.8952
14.500000 96.347 -174.0086
14.750000 96.323 -174.1552
15.000000 96.307 -174.3097
15.250000 96.298 -174.4698
15.500000 96.297 -174.6252
15.750000 96.307 -174.7775
16.000000 96.328 -174.9385
16.250000 96.363 -175.1603
16.500000 96.409 -175.4744
16.750000 96.460 -175.9270
17.000000 96.503 -176.5204
17.250000 96.530 -177.2199
17.500000 96.531 -177.9756
17.750000 96.503 -178.6608
18.000000 96.453 -179.2081
18.250000 96.388 -179.5440
18.500000 96.331 -179.6507
18.750000 96.291 -179.5913
19.000000 96.280 -179.4265
19.250000 96.296 -179.3007
19.500000 96.328 -179.2685
19.750000 96.364 -179.3674
20.000000 96.386 -179.5694
20.299999 96.387 -179.8254
20.600000 96.364 -179.9766
20.900000 96.332 -179.9314
21.200001 96.316 -179.6968
21.400000 96.322 -179.5129
21.799999 96.371 -179.2660
22.000000 96.404 -179.2802
22.400000 96.452 -179.6419
22.700001 96.447 179.9164
23.000000 96.397 179.5334
23.299999 96.319 179.3817
23.600000 96.241 179.5154
24.000000 96.186 -179.9728
24.299999 96.202 -179.5885
24.700001 96.282 -179.4421
25.000000 96.346 -179.7389
25.400000 96.378 179.4335
25.799999 96.317 178.5657
26.200001 96.190 178.1784
26.500000 96.102 178.3308
26.900000 96.058 178.9357
27.200001 96.099 179.3623
27.600000 96.220 179.4621
28.000000 96.329 178.8660
28.500000 96.343 177.6628
29.000000 96.229 176.9785
29.500000 96.118 177.2228
30.000000 96.118 177.7737
30.400000 96.171 177.8756
30.700001 96.201 177.6896
31.100000 96.193 177.3362
31.500000 96.141 177.1795
32.000000 96.085 177.4401
32.500000 96.105 177.8150
33.000000 96.170 177.7538
33.500000 96.203 177.2339
34.000000 96.177 176.6742
34.500000 96.130 176.3722
35.000000 96.108 176.2392
35.500000 96.112 176.0410
36.000000 96.119 175.7123
36.500000 96.114 175.3518
37.000000 96.103 175.0521
37.500000 96.093 174.8229
38.200001 96.085 174.5999
38.700001 96.085 174.5028
39.500000 96.100 174.3499
40.000000 96.108 174.2040
40.599998 96.104 174.0197
41.200001 96.092 173.8926
41.799999 96.082 173.7941
42.500000 96.075 173.6224
43.099998 96.063 173.4275
43.700001 96.048 173.2399
44.400002 96.034 173.0305
45.000000 96.026 172.8276
45.500000 96.020 172.6468
46.200001 96.015 172.3997
46.799999 96.015 172.1813
47.500000 96.014 171.8954
48.200001 96.004 171.6198
48.700001 95.992 171.4657
49.400002 95.976 171.3193
50.000000 95.967 171.2309
50.799999 95.962 171.0985
51.500000 95.959 170.9255
52.200001 95.948 170.7233
53.000000 95.932 170.5068
53.799999 95.918 170.2824
54.500000 95.902 170.0731
55.200001 95.883 169.8956
56.000000 95.869 169.7227
57.000000 95.856 169.4542
58.000000 95.834 169.1919
59.000000 95.817 168.9799
60.000000 95.804 168.7015
60.799999 95.786 168.4714
61.500000 95.769 168.3059
62.200001 95.758 168.1502
63.000000 95.746 167.9610
64.000000 95.732 167.7278
65.000000 95.720 167.4955
66.000000 95.705 167.2540
67.000000 95.684 167.0232
68.000000 95.656 166.8322
69.000000 95.632 166.6895
70.000000 95.617 166.5090
71.000000 95.595 166.2615
72.000000 95.564 166.0453
73.000000 95.537 165.8666
74.000000 95.513 165.6707
75.000000 95.488 165.4637
76.199997 95.457 165.2203
77.500000 95.420 164.9829
78.800003 95.393 164.7855
80.000000 95.373 164.5539
81.199997 95.350 164.2953
82.500000 95.319 164.0235
83.800003 95.289 163.7949
85.000000 95.264 163.5778
86.199997 95.240 163.3459
87.500000 95.202 163.0912
88.500000 95.169 163.0013
90.000000 95.140 162.8940
91.199997 95.117 162.7466
92.500000 95.090 162.5948
93.800003 95.065 162.4284
95.000000 95.040 162.2409
96.199997 95.010 162.0554
97.500000 94.973 161.8846
98.800003 94.937 161.7453
100.000000 94.906 161.6163
101.500000 94.865 161.4421
103.000000 94.826 161.2507
104.400002 94.789 161.0520
106.000000 94.747 160.8381
107.500000 94.712 160.6477
109.000000 94.676 160.4707
110.599998 94.637 160.3001
112.000000 94.602 160.1644
113.800003 94.555 159.9971
115.000000 94.522 159.8867
117.199997 94.462 159.6937
118.000000 94.440 159.6216
120.599998 94.371 159.4106
122.000000 94.339 159.2969
124.099998 94.294 159.1045
125.000000 94.275 159.0246
126.500000 94.242 158.9041
128.000000 94.207 158.8037
131.500000 94.126 158.5902
132.000000 94.114 158.5573
134.000000 94.067 158.4207
136.000000 94.022 158.2957
138.000000 93.981 158.1821
140.000000 93.941 158.0744
143.000000 93.882 157.9217
145.000000 93.844 157.8286
147.500000 93.795 157.7146
150.000000 93.744 157.6308
152.500000 93.690 157.5368
155.000000 93.636 157.4426
157.500000 93.583 157.3478
160.000000 93.530 157.2755
162.500000 93.479 157.2095
165.000000 93.429 157.1417
167.500000 93.378 157.0868
170.000000 93.326 157.0417
172.500000 93.273 156.9980
175.000000 93.219 156.9583
177.500000 93.166 156.9293
180.000000 93.113 156.9048
182.500000 93.062 156.8785
185.000000 93.011 156.8586
187.500000 92.960 156.8501
190.000000 92.912 156.8473
192.500000 92.864 156.8481
195.000000 92.818 156.8467
197.500000 92.772 156.8467
200.000000 92.728 156.8545
203.000000 92.675 156.8707
206.000000 92.624 156.8926
209.000000 92.573 156.9156
212.000000 92.524 156.9392
214.000000 92.491 156.9547
218.000000 92.425 156.9942
220.000000 92.393 157.0167
224.000000 92.329 157.0679
227.000000 92.281 157.1082
230.000000 92.234 157.1524
233.000000 92.187 157.2018
236.000000 92.140 157.2524
240.000000 92.079 157.3208
243.000000 92.034 157.3763
247.000000 91.975 157.4518
250.000000 91.932 157.5102
254.000000 91.876 157.6068
258.000000 91.820 157.7143
262.000000 91.764 157.8145
265.000000 91.724 157.8936
269.000000 91.673 158.0040
272.000000 91.637 158.0919
276.000000 91.589 158.2095
280.000000 91.542 158.3340
285.000000 91.484 158.4930
290.000000 91.428 158.6515
295.000000 91.374 158.8157
300.000000 91.320 158.9879
304.000000 91.277 159.1326
307.000000 91.248 159.2434
311.000000 91.209 159.3911
315.000000 91.171 159.5435
320.000000 91.124 159.7370
325.000000 91.078 159.9300
330.000000 91.033 160.1280
335.000000 90.990 160.3319
340.000000 90.947 160.5336
345.000000 90.905 160.7381
350.000000 90.863 160.9456
355.000000 90.823 161.1530
360.000000 90.785 161.3500
365.000000 90.748 161.5365
370.000000 90.710 161.7204
375.000000 90.674 161.9086
382.000000 90.622 162.1614
387.000000 90.584 162.3329
395.000000 90.522 162.6309
400.000000 90.484 162.8149
406.000000 90.439 163.0280
412.000000 90.396 163.2481
418.000000 90.352 163.4717
425.000000 90.303 163.7276
431.000000 90.259 163.9669
437.000000 90.215 164.2131
444.000000 90.166 164.4906
450.000000 90.124 164.7173
455.000000 90.088 164.9208
462.000000 90.036 165.2286
468.000000 89.993 165.4906
475.000000 89.951 165.7763
482.000000 89.914 166.0543
487.000000 89.887 166.2634
494.000000 89.846 166.5845
500.000000 89.810 166.8646
508.000000 89.768 167.2191
515.000000 89.738 167.5126
522.000000 89.708 167.8207
530.000000 89.669 168.1853
538.000000 89.627 168.5541
545.000000 89.590 168.8896
552.000000 89.555 169.2197
560.000000 89.519 169.5921
570.000000 89.478 170.0694
580.000000 89.438 170.5544
590.000000 89.401 171.0441
600.000000 89.365 171.5396
608.000000 89.335 171.9417
615.000000 89.310 172.2975
622.000000 89.284 172.6557
630.000000 89.256 173.0734
640.000000 89.223 173.5954
650.000000 89.192 174.1165
660.000000 89.159 174.6593
670.000000 89.129 175.2020
680.000000 89.102 175.7451
690.000000 89.079 176.2968
700.000000 89.059 176.8497
710.000000 89.041 177.4117
720.000000 89.024 177.9797
730.000000 89.011 178.5506
740.000000 89.001 179.1239
750.000000 88.993 179.6998
762.000000 88.986 -179.6091
775.000000 88.981 -178.8564
788.000000 88.979 -178.0995
800.000000 88.982 -177.4026
812.000000 88.989 -176.7105
825.000000 89.000 -175.9702
838.000000 89.016 -175.2300
850.000000 89.036 -174.5526
862.000000 89.061 -173.8963
875.000000 89.088 -173.1865
885.000000 89.110 -172.6458
900.000000 89.149 -171.8680
912.000000 89.186 -171.2606
925.000000 89.229 -170.6231
938.000000 89.277 -170.0089
950.000000 89.325 -169.4740
962.000000 89.374 -168.9582
975.000000 89.424 -168.4125
988.000000 89.475 -167.8994
1000.000000 89.525 -167.4572
1015.000000 89.589 -166.9365
1030.000000 89.655 -166.4518
1044.000000 89.717 -166.0319
1060.000000 89.790 -165.5905
1075.000000 89.860 -165.2174
1090.000000 89.936 -164.8747
1106.000000 90.025 -164.5486
1120.000000 90.100 -164.2775
1138.000000 90.194 -163.9635
1150.000000 90.256 -163.7809
1172.000000 90.361 -163.4586
1180.000000 90.398 -163.3492
1206.000000 90.516 -163.0349
1220.000000 90.581 -162.8717
1241.000000 90.685 -162.6591
1250.000000 90.729 -162.5700
1265.000000 90.797 -162.4193
1280.000000 90.862 -162.2772
1315.000000 91.003 -161.9431
1320.000000 91.024 -161.9004
1340.000000 91.099 -161.7241
1360.000000 91.152 -161.5426
1380.000000 91.200 -161.3618
1400.000000 91.261 -161.1819
1430.000000 91.361 -160.9157
1450.000000 91.426 -160.7353
1475.000000 91.506 -160.5092
1500.000000 91.586 -160.2887
1525.000000 91.663 -160.0674
1550.000000 91.735 -159.8463
1575.000000 91.805 -159.6273
1600.000000 91.872 -159.4013
1625.000000 91.940 -159.1616
1650.000000 92.010 -158.9041
1675.000000 92.085 -158.6206
1700.000000 92.170 -158.3434
1725.000000 92.264 -158.1120
1750.000000 92.362 -157.9641
1775.000000 92.456 -157.8959
1800.000000 92.546 -157.8864
1825.000000 92.629 -157.9051
1850.000000 92.707 -157.9409
1875.000000 92.781 -157.9934
1900.000000 92.853 -158.0614
1925.000000 92.920 -158.1436
1950.000000 92.984 -158.2424
1975.000000 93.045 -158.3588
2000.000000 93.103 -158.4935
2030.000000 93.167 -158.6781
2060.000000 93.224 -158.8825
2090.000000 93.276 -159.1087
2120.000000 93.320 -159.3488
2140.000000 93.345 -159.5150
2180.000000 93.384 -159.8522
2200.000000 93.396 -160.0199
2240.000000 93.405 -160.3410
2270.000000 93.399 -160.5605
2300.000000 93.383 -160.7466
2330.000000 93.358 -160.8908
2360.000000 93.323 -160.9772
2400.000000 93.262 -160.9830
2430.000000 93.208 -160.8886
2470.000000 93.128 -160.6087
2500.000000 93.064 -160.2674
2540.000000 92.979 -159.6253
2580.000000 92.900 -158.7526
2620.000000 92.837 -157.6369
2650.000000 92.805 -156.6416
2690.000000 92.794 -155.1216
2720.000000 92.813 -153.8612
2760.000000 92.883 -152.0705
2800.000000 93.013 -150.2458
2850.000000 93.260 -148.0806
2900.000000 93.591 -146.1864
2950.000000 93.994 -144.6973
3000.000000 94.454 -143.7558
3040.000000 94.842 -143.4451
3070.000000 95.136 -143.4602
3110.000000 95.531 -143.7879
3150.000000 95.925 -144.4680
3200.000000 96.409 -145.8946
3250.000000 96.852 -148.0599
3300.000000 97.209 -150.9057
3350.000000 97.448 -154.1867
3400.000000 97.562 -157.6138
3450.000000 97.568 -160.9661
3500.000000 97.478 -164.0957
3550.000000 97.300 -166.8956
3600.000000 97.046 -169.2394
3650.000000 96.734 -171.0069
3700.000000 96.393 -172.1412
3750.000000 96.051 -172.6618
3820.000000 95.618 -172.5313
3870.000000 95.360 -171.9846
3950.000000 95.056 -170.6648
4000.000000 94.938 -169.7289
4060.000000 94.863 -168.6357
4120.000000 94.850 -167.6963
4180.000000 94.888 -167.0277
4250.000000 94.965 -166.6809
4310.000000 95.030 -166.7623
4370.000000 95.071 -167.1395
4440.000000 95.079 -167.8604
4500.000000 95.049 -168.6377
4550.000000 94.998 -169.3560
4620.000000 94.884 -170.4227
4680.000000 94.746 -171.3568
4750.000000 94.533 -172.4133
4820.000000 94.262 -173.3504
4870.000000 94.033 -173.8902
4940.000000 93.667 -174.3689
5000.000000 93.319 -174.4541
5080.000000 92.827 -174.0282
5150.000000 92.393 -173.1406
5220.000000 91.974 -171.8129
5300.000000 91.530 -169.8375
5380.000000 91.137 -167.4882
5450.000000 90.837 -165.2160
5520.000000 90.581 -162.8194
5600.000000 90.344 -160.0121
5700.000000 90.117 -156.4928
5800.000000 89.946 -153.0101
5900.000000 89.813 -149.5547
6000.000000 89.720 -146.1065
6080.000000 89.679 -143.3445
6150.000000 89.667 -140.9274
6220.000000 89.672 -138.5108
6300.000000 89.703 -135.7622
6400.000000 89.791 -132.3935
6500.000000 89.931 -129.1443
6600.000000 90.112 -126.0519
6700.000000 90.353 -123.1738
6800.000000 90.670 -120.6367
6900.000000 91.067 -118.6523
7000.000000 91.507 -117.4074
7100.000000 91.927 -116.9369
7200.000000 92.282 -117.1395
7300.000000 92.550 -117.8376
7400.000000 92.713 -118.8046
7500.000000 92.775 -119.8100
7620.000000 92.743 -120.8012
7750.000000 92.601 -121.3373
7880.000000 92.306 -120.9641
8000.000000 91.986 -119.6109
8120.000000 91.741 -117.5071
8250.000000 91.613 -115.0946
8380.000000 91.574 -113.2308
8500.000000 91.524 -112.1160
8620.000000 91.395 -111.2796
8750.000000 91.144 -110.2093
8850.000000 90.897 -109.0296
9000.000000 90.503 -106.4899
9120.000000 90.211 -103.7929
9250.000000 89.952 -100.3151
9380.000000 89.779 -96.4155
9500.000000 89.708 -92.5829
9620.000000 89.730 -88.6551
9750.000000 89.868 -84.4353
9880.000000 90.138 -80.4296
10000.000000 90.502 -77.0974
10150.000000 91.098 -73.7233
10300.000000 91.811 -71.6160
10440.000000 92.528 -71.1863
10600.000000 93.296 -72.8762
10750.000000 93.824 -76.5437
10900.000000 94.043 -81.5695
11060.000000 93.889 -87.1259
11200.000000 93.471 -91.1199
11380.000000 92.696 -94.3424
11500.000000 92.117 -95.3225
11720.000000 91.050 -95.1927
11800.000000 90.678 -94.6290
12060.000000 89.621 -91.3747
12200.000000 89.183 -89.1712
12410.000000 88.651 -85.9445
12500.000000 88.450 -84.6141
12650.000000 88.148 -82.4173
12800.000000 87.899 -80.3195
13150.000000 87.448 -76.7557
13200.000000 87.381 -76.4276
13400.000000 87.062 -75.4099
13600.000000 86.640 -74.4637
13800.000000 86.135 -73.0325
14000.000000 85.610 -70.7471
14300.000000 84.942 -65.5455
14500.000000 84.689 -61.1687
14750.000000 84.697 -55.3867
15000.000000 85.138 -50.2105
15250.000000 86.062 -47.0253
15500.000000 87.391 -47.9015
15750.000000 88.676 -55.1616
16000.000000 89.219 -68.7218
16250.000000 88.623 -83.6437
16500.000000 87.098 -94.3003
16750.000000 85.204 -99.6017
17000.000000 83.385 -101.5110
17250.000000 81.785 -102.0220
17500.000000 80.359 -102.2243
17750.000000 78.990 -102.4037
18000.000000 77.582 -102.3357
18250.000000 76.091 -101.6328
18500.000000 74.520 -99.9536
18750.000000 72.885 -97.0179
19000.000000 71.211 -92.6452
19250.000000 69.499 -86.8195
19500.000000 67.712 -79.6389
19750.000000 65.817 -71.1738
20000.000000 63.719 -61.3948
20300.000000 60.807 -47.8132
20600.000000 57.480 -32.1958
20900.000000 53.697 -15.1008
21200.000000 49.410 -0.2240
21400.000000 46.269 -3.9243
21800.000000 39.434 19.9525
22000.000000 35.671 -111.4077
22400.000000 26.762 -151.5620
22700.000000 18.837 130.7637
23000.000000 11.186 -107.5547
23300.000000 7.365 -52.2812
23600.000000 6.717 11.3750
24000.000000 6.418 65.7930
