* Measurement data measured by REW V5.20.13
* Source: Headset (DS by VECLAN.COM), MICROPHONE (Master Volume), L, volume: 0.720. Timing signal peak level -17.2 dBFS, measurement signal peak level -14.2 dBFS
* Format: 2M Log Swept Sine, 1 sweep at -12.0 dBFS using an acoustic timing reference
* Dated: Feb 22, 2024 1:43:04 PM
* REW Settings:
*  C-weighting compensation: Off
*  Target level: 75.0 dB
* Note: ; Delay -0.0704 ms (-24 mm, -0.95 in) using estimated IR delay relative to Acoustic reference played from HEADPHONE R with no timing offset
* Measurement: Balanced R
* Smoothing: 1/24 octave
* Frequency Step: 1/48 octave
* Start Frequency: 1.000 Hz
*
* Freq(Hz) SPL(dB) Phase(degrees)
1.000000 78.623 -25.5555
1.015000 79.320 -26.8574
1.030000 79.985 -28.1340
1.044000 80.573 -29.2982
1.060000 81.199 -30.5913
1.075000 81.735 -31.7624
1.090000 82.215 -32.8885
1.106000 82.665 -34.0402
1.120000 83.029 -35.0332
1.138000 83.468 -36.2979
1.150000 83.743 -37.1329
1.172000 84.214 -38.6463
1.180000 84.374 -39.1907
1.206000 84.861 -40.9369
1.220000 85.103 -41.8619
1.241000 85.441 -43.2281
1.250000 85.578 -43.8056
1.265000 85.796 -44.7568
1.280000 86.002 -45.6936
1.315000 86.446 -47.8203
1.320000 86.506 -48.1170
1.340000 86.738 -49.2858
1.360000 86.960 -50.4243
1.380000 87.176 -51.5312
1.400000 87.388 -52.6055
1.430000 87.706 -54.1529
1.450000 87.922 -55.1400
1.475000 88.197 -56.3195
1.500000 88.455 -57.4206
1.525000 88.692 -58.4460
1.550000 88.908 -59.4037
1.575000 89.108 -60.3020
1.600000 89.292 -61.1488
1.625000 89.463 -61.9523
1.650000 89.623 -62.7205
1.675000 89.774 -63.4616
1.700000 89.919 -64.1836
1.725000 90.060 -64.8946
1.750000 90.199 -65.6027
1.775000 90.338 -66.3160
1.800000 90.479 -67.0426
1.825000 90.626 -67.7905
1.850000 90.775 -68.5559
1.875000 90.919 -69.3143
1.900000 91.058 -70.0647
1.925000 91.193 -70.8070
1.950000 91.323 -71.5411
1.975000 91.451 -72.2672
2.000000 91.575 -72.9852
2.030000 91.721 -73.8361
2.060000 91.864 -74.6754
2.090000 92.005 -75.5031
2.120000 92.144 -76.3192
2.140000 92.237 -76.8569
2.180000 92.423 -77.9166
2.200000 92.516 -78.4388
2.240000 92.703 -79.4609
2.270000 92.841 -80.2079
2.300000 92.978 -80.9403
2.330000 93.114 -81.6599
2.360000 93.248 -82.3686
2.400000 93.423 -83.2996
2.430000 93.552 -83.9899
2.470000 93.720 -84.9033
2.500000 93.844 -85.5854
2.540000 94.004 -86.4946
2.580000 94.159 -87.4062
2.620000 94.308 -88.3122
2.650000 94.418 -88.9867
2.690000 94.559 -89.8795
2.720000 94.663 -90.5444
2.760000 94.797 -91.4249
2.800000 94.928 -92.2987
2.850000 95.087 -93.3819
2.900000 95.242 -94.4556
2.950000 95.392 -95.5205
3.000000 95.537 -96.5786
3.040000 95.648 -97.4194
3.070000 95.730 -98.0461
3.110000 95.836 -98.8756
3.150000 95.939 -99.6973
3.200000 96.064 -100.7120
3.250000 96.185 -101.7111
3.300000 96.302 -102.6928
3.350000 96.414 -103.6559
3.400000 96.521 -104.6019
3.450000 96.624 -105.5326
3.500000 96.722 -106.4499
3.550000 96.817 -107.3557
3.600000 96.908 -108.2518
3.650000 96.996 -109.1402
3.700000 97.081 -110.0224
3.750000 97.162 -110.8979
3.820000 97.269 -112.1085
3.870000 97.341 -112.9598
3.950000 97.452 -114.2933
4.000000 97.518 -115.1057
4.060000 97.594 -116.0562
4.120000 97.666 -116.9805
4.180000 97.735 -117.8817
4.250000 97.811 -118.9085
4.310000 97.872 -119.7713
4.370000 97.932 -120.6215
4.440000 97.999 -121.6001
4.500000 98.053 -122.4237
4.550000 98.095 -123.0991
4.620000 98.153 -124.0273
4.680000 98.200 -124.8068
4.750000 98.253 -125.6970
4.820000 98.304 -126.5647
4.870000 98.339 -127.1699
4.940000 98.386 -127.9994
5.000000 98.425 -128.6963
5.080000 98.475 -129.6091
5.150000 98.517 -130.3958
5.220000 98.557 -131.1679
5.300000 98.601 -132.0322
5.380000 98.642 -132.8790
5.450000 98.677 -133.6069
5.520000 98.710 -134.3240
5.600000 98.747 -135.1280
5.700000 98.790 -136.1104
5.800000 98.830 -137.0705
5.900000 98.868 -138.0106
6.000000 98.902 -138.9295
6.080000 98.928 -139.6494
6.150000 98.949 -140.2682
6.220000 98.969 -140.8771
6.300000 98.990 -141.5611
6.400000 99.014 -142.3981
6.500000 99.036 -143.2135
6.600000 99.056 -144.0057
6.700000 99.074 -144.7739
6.800000 99.090 -145.5193
6.900000 99.105 -146.2431
7.000000 99.119 -146.9464
7.100000 99.131 -147.6275
7.200000 99.143 -148.2879
7.300000 99.154 -148.9302
7.400000 99.165 -149.5547
7.500000 99.175 -150.1596
7.620000 99.187 -150.8643
7.750000 99.200 -151.6072
7.880000 99.213 -152.3257
8.000000 99.224 -152.9710
8.120000 99.235 -153.6027
8.250000 99.246 -154.2698
8.380000 99.257 -154.9209
8.500000 99.265 -155.5095
8.620000 99.273 -156.0856
8.750000 99.280 -156.6949
8.850000 99.285 -157.1531
9.000000 99.291 -157.8234
9.120000 99.294 -158.3439
9.250000 99.298 -158.8905
9.380000 99.302 -159.4198
9.500000 99.303 -159.8944
9.620000 99.302 -160.3563
9.750000 99.299 -160.8417
9.880000 99.289 -161.3133
10.000000 99.273 -161.7374
10.150000 99.245 -162.2511
10.300000 99.212 -162.7435
10.440000 99.173 -163.1819
10.600000 99.127 -163.6649
10.750000 99.086 -164.1031
10.900000 99.045 -164.5282
11.060000 99.003 -164.9798
11.200000 98.969 -165.3732
11.380000 98.925 -165.8703
11.500000 98.896 -166.1955
11.720000 98.842 -166.7780
11.800000 98.823 -166.9843
12.060000 98.764 -167.6373
12.200000 98.734 -167.9802
12.410000 98.691 -168.4812
12.500000 98.673 -168.6891
12.650000 98.643 -169.0265
12.800000 98.613 -169.3544
13.150000 98.546 -170.0851
13.200000 98.537 -170.1872
13.400000 98.504 -170.5896
13.600000 98.473 -170.9880
13.800000 98.445 -171.3840
14.000000 98.418 -171.7825
14.300000 98.378 -172.3845
14.500000 98.350 -172.7831
14.750000 98.315 -173.2697
15.000000 98.281 -173.7398
15.250000 98.251 -174.1927
15.500000 98.225 -174.6274
15.750000 98.201 -175.0452
16.000000 98.179 -175.4513
16.250000 98.158 -175.8543
16.500000 98.138 -176.2550
16.750000 98.119 -176.6513
17.000000 98.100 -177.0331
17.250000 98.082 -177.3953
17.500000 98.066 -177.7317
17.750000 98.052 -178.0449
18.000000 98.042 -178.3443
18.250000 98.036 -178.6407
18.500000 98.033 -178.9528
18.750000 98.032 -179.2869
19.000000 98.030 -179.6482
19.250000 98.025 179.9697
19.500000 98.014 179.5839
19.750000 97.996 179.2081
20.000000 97.973 178.8665
20.299999 97.940 178.5137
20.600000 97.907 178.2269
20.900000 97.876 177.9961
21.200001 97.852 177.7975
21.400000 97.839 177.6669
21.799999 97.820 177.3855
22.000000 97.813 177.2242
22.400000 97.797 176.8514
22.700001 97.781 176.5346
23.000000 97.761 176.1990
23.299999 97.735 175.8602
23.600000 97.705 175.5330
24.000000 97.661 175.1336
24.299999 97.628 174.8675
24.700001 97.587 174.5482
25.000000 97.561 174.3202
25.400000 97.531 174.0107
25.799999 97.505 173.6818
26.200001 97.480 173.3378
26.500000 97.460 173.0786
26.900000 97.436 172.7399
27.200001 97.418 172.4921
27.600000 97.397 172.1646
28.000000 97.376 171.8354
28.500000 97.350 171.4268
29.000000 97.320 171.0421
29.500000 97.290 170.6985
30.000000 97.261 170.3956
30.400000 97.241 170.1702
30.700001 97.229 170.0011
31.100000 97.214 169.7597
31.500000 97.200 169.4876
32.000000 97.177 169.1031
32.500000 97.145 168.7006
33.000000 97.102 168.3297
33.500000 97.055 168.0178
34.000000 97.011 167.7576
34.500000 96.973 167.5225
35.000000 96.941 167.2921
35.500000 96.912 167.0536
36.000000 96.885 166.8021
36.500000 96.856 166.5460
37.000000 96.827 166.3078
37.500000 96.802 166.0961
38.200001 96.777 165.7857
38.700001 96.763 165.4981
39.500000 96.723 164.9579
40.000000 96.685 164.6572
40.599998 96.639 164.3745
41.200001 96.598 164.1320
41.799999 96.561 163.8837
42.500000 96.520 163.5798
43.099998 96.487 163.3057
43.700001 96.454 163.0091
44.400002 96.412 162.6546
45.000000 96.373 162.3722
45.500000 96.341 162.1525
46.200001 96.300 161.8541
46.799999 96.267 161.6095
47.500000 96.230 161.3465
48.200001 96.197 161.0924
48.700001 96.173 160.9101
49.400002 96.137 160.6652
50.000000 96.105 160.4718
50.799999 96.061 160.2203
51.500000 96.020 159.9938
52.200001 95.976 159.7668
53.000000 95.925 159.5031
53.799999 95.874 159.2194
54.500000 95.829 158.9655
55.200001 95.788 158.7203
56.000000 95.747 158.4401
57.000000 95.700 158.1163
58.000000 95.671 157.8068
59.000000 95.633 157.3137
60.000000 95.537 156.9156
60.799999 95.456 156.8941
61.500000 95.408 156.9256
62.200001 95.373 156.8636
63.000000 95.333 156.6945
64.000000 95.288 156.3760
65.000000 95.242 155.9263
66.000000 95.178 155.5048
67.000000 95.114 155.3670
68.000000 95.088 155.3618
69.000000 95.058 155.2258
70.000000 94.995 155.2040
71.000000 94.940 155.2349
72.000000 94.879 154.9926
73.000000 94.775 154.5283
74.000000 94.619 154.1795
75.000000 94.483 154.3727
76.199997 94.480 154.6227
77.500000 94.519 154.0770
78.800003 94.492 153.5834
80.000000 94.449 153.4185
81.199997 94.397 153.3599
82.500000 94.315 153.2797
83.800003 94.224 153.2318
85.000000 94.150 153.0989
86.199997 94.085 152.9187
87.500000 94.027 152.7107
88.500000 93.984 152.5755
90.000000 93.917 152.4716
91.199997 93.863 152.4226
92.500000 93.799 152.3535
93.800003 93.732 152.2639
95.000000 93.671 152.1594
96.199997 93.613 152.0517
97.500000 93.552 151.9614
98.800003 93.494 151.9029
100.000000 93.440 151.8583
101.500000 93.371 151.8041
103.000000 93.299 151.7477
104.400002 93.234 151.6914
106.000000 93.161 151.6189
107.500000 93.092 151.5658
109.000000 93.025 151.5336
110.599998 92.952 151.5045
112.000000 92.887 151.5108
113.800003 92.808 151.5417
115.000000 92.758 151.5345
117.199997 92.660 151.4877
118.000000 92.623 151.4797
120.599998 92.512 151.5470
122.000000 92.462 151.5881
124.099998 92.382 151.6121
125.000000 92.345 151.6266
126.500000 92.284 151.6699
128.000000 92.230 151.7169
131.500000 92.113 151.7687
132.000000 92.095 151.7867
134.000000 92.025 151.9005
136.000000 91.964 152.0291
138.000000 91.907 152.1163
140.000000 91.841 152.2017
143.000000 91.733 152.4010
145.000000 91.666 152.5004
147.500000 91.592 152.5681
150.000000 91.525 152.6754
152.500000 91.459 152.9071
155.000000 91.392 153.2075
157.500000 91.333 153.5116
160.000000 91.297 153.8444
162.500000 91.299 154.3202
165.000000 91.419 154.7689
167.500000 91.702 153.5888
170.000000 91.639 149.7754
172.500000 90.975 148.6490
175.000000 90.532 150.6190
177.500000 90.416 152.1992
180.000000 90.366 153.0173
182.500000 90.309 153.5219
185.000000 90.246 153.9677
187.500000 90.187 154.4643
190.000000 90.137 155.0111
192.500000 90.093 155.5417
195.000000 90.054 156.0104
197.500000 90.026 156.3853
200.000000 90.007 156.6470
203.000000 89.976 156.8394
206.000000 89.930 156.9549
209.000000 89.872 157.0282
212.000000 89.800 157.0891
214.000000 89.740 157.1585
218.000000 89.606 157.5377
220.000000 89.546 157.8569
224.000000 89.447 158.5443
227.000000 89.392 159.0172
230.000000 89.356 159.4168
233.000000 89.322 159.7167
236.000000 89.274 159.9875
240.000000 89.202 160.3949
243.000000 89.150 160.7401
247.000000 89.085 161.2419
250.000000 89.038 161.6394
254.000000 88.976 162.1551
258.000000 88.923 162.6050
262.000000 88.886 163.0281
265.000000 88.863 163.3258
269.000000 88.826 163.6927
272.000000 88.793 163.9579
276.000000 88.747 164.3136
280.000000 88.702 164.6724
285.000000 88.643 165.1296
290.000000 88.582 165.6169
295.000000 88.524 166.1142
300.000000 88.466 166.5987
304.000000 88.426 167.0087
307.000000 88.397 167.3207
311.000000 88.356 167.7317
315.000000 88.317 168.1517
320.000000 88.270 168.6769
325.000000 88.224 169.1848
330.000000 88.180 169.7035
335.000000 88.135 170.2427
340.000000 88.090 170.7693
345.000000 88.048 171.2839
350.000000 88.005 171.8013
355.000000 87.963 172.3187
360.000000 87.922 172.8405
365.000000 87.883 173.3666
370.000000 87.844 173.8871
375.000000 87.806 174.4072
382.000000 87.755 175.1498
387.000000 87.718 175.6808
395.000000 87.660 176.5300
400.000000 87.626 177.0548
406.000000 87.589 177.6841
412.000000 87.550 178.3296
418.000000 87.513 178.9889
425.000000 87.475 179.7271
431.000000 87.448 -179.6494
437.000000 87.418 -179.0199
444.000000 87.386 -178.3010
450.000000 87.358 -177.6752
455.000000 87.333 -177.1493
462.000000 87.303 -176.4281
468.000000 87.278 -175.8185
475.000000 87.249 -175.0977
482.000000 87.224 -174.3699
487.000000 87.207 -173.8470
494.000000 87.185 -173.1151
500.000000 87.166 -172.4871
508.000000 87.143 -171.6500
515.000000 87.123 -170.9114
522.000000 87.105 -170.1689
530.000000 87.088 -169.3294
538.000000 87.070 -168.4722
545.000000 87.054 -167.7043
552.000000 87.039 -166.9378
560.000000 87.025 -166.0503
570.000000 87.011 -164.9173
580.000000 87.000 -163.7676
590.000000 86.993 -162.5930
600.000000 86.990 -161.3951
608.000000 86.989 -160.4209
615.000000 86.992 -159.5548
622.000000 86.998 -158.6741
630.000000 87.010 -157.6588
640.000000 87.031 -156.3867
650.000000 87.061 -155.0984
660.000000 87.101 -153.8084
670.000000 87.155 -152.5359
680.000000 87.221 -151.2903
690.000000 87.298 -150.0911
700.000000 87.384 -148.9456
710.000000 87.478 -147.8581
720.000000 87.578 -146.8432
730.000000 87.682 -145.9093
740.000000 87.786 -145.0455
750.000000 87.888 -144.2444
762.000000 88.004 -143.3685
775.000000 88.121 -142.4971
788.000000 88.229 -141.6597
800.000000 88.319 -140.9046
812.000000 88.406 -140.1563
825.000000 88.496 -139.3354
838.000000 88.584 -138.5113
850.000000 88.663 -137.7448
862.000000 88.742 -136.9682
875.000000 88.827 -136.1222
885.000000 88.894 -135.4672
900.000000 88.998 -134.4860
912.000000 89.082 -133.7096
925.000000 89.177 -132.8698
938.000000 89.274 -132.0371
950.000000 89.366 -131.2856
962.000000 89.459 -130.5470
975.000000 89.560 -129.7588
988.000000 89.663 -128.9906
1000.000000 89.761 -128.2991
1015.000000 89.883 -127.4550
1030.000000 90.009 -126.6446
1044.000000 90.129 -125.9241
1060.000000 90.267 -125.1247
1075.000000 90.396 -124.3984
1090.000000 90.532 -123.7011
1106.000000 90.689 -122.9820
1120.000000 90.834 -122.3883
1138.000000 91.021 -121.6725
1150.000000 91.143 -121.1997
1172.000000 91.362 -120.3549
1180.000000 91.441 -120.0619
1206.000000 91.699 -119.1455
1220.000000 91.841 -118.6762
1241.000000 92.057 -117.9982
1250.000000 92.150 -117.7137
1265.000000 92.305 -117.2511
1280.000000 92.460 -116.8082
1315.000000 92.821 -115.8157
1320.000000 92.872 -115.6787
1340.000000 93.072 -115.1504
1360.000000 93.254 -114.6457
1380.000000 93.438 -114.1611
1400.000000 93.638 -113.7042
1430.000000 93.949 -113.0693
1450.000000 94.160 -112.6748
1475.000000 94.426 -112.2291
1500.000000 94.697 -111.8405
1525.000000 94.970 -111.5032
1550.000000 95.243 -111.2360
1575.000000 95.519 -111.0476
1600.000000 95.795 -110.9439
1625.000000 96.074 -110.9192
1650.000000 96.356 -110.9888
1675.000000 96.638 -111.1593
1700.000000 96.919 -111.4303
1725.000000 97.199 -111.8128
1750.000000 97.474 -112.3180
1775.000000 97.745 -112.9433
1800.000000 98.008 -113.6872
1825.000000 98.262 -114.5540
1850.000000 98.505 -115.5421
1875.000000 98.733 -116.6430
1900.000000 98.944 -117.8519
1925.000000 99.136 -119.1559
1950.000000 99.307 -120.5365
1975.000000 99.456 -121.9810
2000.000000 99.583 -123.4675
2030.000000 99.706 -125.2786
2060.000000 99.798 -127.1025
2090.000000 99.859 -128.9276
2120.000000 99.888 -130.7287
2140.000000 99.890 -131.9016
2180.000000 99.854 -134.1347
2200.000000 99.817 -135.1736
2240.000000 99.708 -137.0553
2270.000000 99.606 -138.2929
2300.000000 99.491 -139.3828
2330.000000 99.365 -140.3176
2360.000000 99.232 -141.1029
2400.000000 99.051 -141.9327
2430.000000 98.914 -142.4006
2470.000000 98.734 -142.8398
2500.000000 98.603 -143.0471
2540.000000 98.436 -143.1749
2580.000000 98.280 -143.1492
2620.000000 98.135 -142.9971
2650.000000 98.035 -142.8098
2690.000000 97.914 -142.4792
2720.000000 97.832 -142.1783
2760.000000 97.735 -141.7201
2800.000000 97.653 -141.2251
2850.000000 97.571 -140.5834
2900.000000 97.508 -139.9307
2950.000000 97.465 -139.2873
3000.000000 97.438 -138.6681
3040.000000 97.428 -138.1953
3070.000000 97.427 -137.8651
3110.000000 97.435 -137.4699
3150.000000 97.450 -137.1294
3200.000000 97.478 -136.7853
3250.000000 97.512 -136.5471
3300.000000 97.553 -136.4346
3350.000000 97.592 -136.4578
3400.000000 97.632 -136.6182
3450.000000 97.669 -136.9149
3500.000000 97.699 -137.3463
3550.000000 97.716 -137.9128
3600.000000 97.712 -138.6052
3650.000000 97.684 -139.4091
3700.000000 97.625 -140.2964
3750.000000 97.529 -141.2276
3820.000000 97.329 -142.5067
3870.000000 97.135 -143.3161
3950.000000 96.745 -144.2454
4000.000000 96.463 -144.5179
4060.000000 96.102 -144.4673
4120.000000 95.729 -143.9606
4180.000000 95.362 -142.9906
4250.000000 94.972 -141.3033
4310.000000 94.687 -139.4315
4370.000000 94.467 -137.2748
4440.000000 94.322 -134.6238
4500.000000 94.310 -132.4946
4550.000000 94.376 -131.0403
4620.000000 94.554 -129.8649
4680.000000 94.726 -129.9234
4750.000000 94.846 -131.2849
4820.000000 94.782 -133.6259
4870.000000 94.596 -135.4755
4940.000000 94.150 -137.7007
5000.000000 93.637 -138.9035
5080.000000 92.851 -139.2657
5150.000000 92.138 -138.4777
5220.000000 91.447 -136.8429
5300.000000 90.709 -134.1771
5380.000000 90.040 -130.8814
5450.000000 89.523 -127.6322
5520.000000 89.067 -124.1280
5600.000000 88.614 -119.9029
5700.000000 88.142 -114.4100
5800.000000 87.764 -108.7709
5900.000000 87.468 -103.0501
6000.000000 87.248 -97.3029
6080.000000 87.123 -92.7043
6150.000000 87.051 -88.6889
6220.000000 87.013 -84.6926
6300.000000 87.008 -80.1583
6400.000000 87.061 -74.5480
6500.000000 87.176 -69.0108
6600.000000 87.355 -63.5718
6700.000000 87.605 -58.2719
6800.000000 87.934 -53.1586
6900.000000 88.358 -48.2693
7000.000000 88.880 -43.6533
7100.000000 89.490 -39.3846
7200.000000 90.192 -35.5604
7300.000000 90.990 -32.3192
7400.000000 91.890 -29.8654
7500.000000 92.885 -28.4630
7620.000000 94.180 -28.6755
7750.000000 95.569 -32.1115
7880.000000 96.604 -39.5485
8000.000000 96.987 -49.2726
8120.000000 96.698 -59.4638
8250.000000 95.725 -68.1211
8380.000000 94.356 -72.9007
8500.000000 93.001 -74.1650
8620.000000 91.707 -73.2079
8750.000000 90.436 -70.4804
8850.000000 89.566 -67.5817
9000.000000 88.438 -62.3855
9120.000000 87.675 -57.7616
9250.000000 86.974 -52.4880
9380.000000 86.388 -47.0723
9500.000000 85.935 -42.0358
9620.000000 85.564 -37.0484
9750.000000 85.251 -31.7920
9880.000000 85.020 -26.7411
10000.000000 84.867 -22.3033
10150.000000 84.748 -17.1816
10300.000000 84.690 -12.7117
10440.000000 84.662 -9.2580
10600.000000 84.611 -6.2577
10750.000000 84.492 -4.2607
10900.000000 84.264 -2.7597
11060.000000 83.899 -1.4565
11200.000000 83.458 -0.4602
11380.000000 82.691 1.1730
11500.000000 82.072 2.8396
11720.000000 80.819 7.3982
11800.000000 80.347 9.5074
12060.000000 78.776 18.0101
12200.000000 77.933 23.8016
12410.000000 76.768 34.2211
12500.000000 76.344 39.2216
12650.000000 75.794 47.8969
12800.000000 75.448 56.4709
13150.000000 75.127 74.1190
13200.000000 75.105 76.3693
13400.000000 75.023 84.8859
13600.000000 74.947 92.7764
13800.000000 74.870 100.1593
14000.000000 74.773 107.1808
14300.000000 74.583 117.5424
14500.000000 74.457 124.5352
14750.000000 74.347 133.3419
15000.000000 74.342 142.3398
15250.000000 74.710 151.0127
15500.000000 75.351 155.5350
15750.000000 75.567 156.4578
16000.000000 75.386 156.9222
16250.000000 74.894 156.8958
16500.000000 73.986 156.8777
16750.000000 72.647 158.3903
17000.000000 71.013 162.3519
17250.000000 69.260 168.6863
17500.000000 67.478 177.1620
17750.000000 65.673 -171.9571
18000.000000 63.920 -157.9542
18250.000000 62.511 -140.4823
18500.000000 62.073 -120.8912
18750.000000 63.001 -102.7417
19000.000000 64.686 -90.6867
19250.000000 66.237 -95.4782
19500.000000 67.143 -158.2826
19750.000000 67.333 23.7468
20000.000000 66.859 118.7502
20300.000000 65.472 118.5999
20600.000000 63.382 85.2216
20900.000000 60.540 166.6333
21200.000000 56.700 -96.8674
21400.000000 53.518 119.2764
21800.000000 47.285 3.3594
22000.000000 45.703 -90.9434
22400.000000 43.070 149.8945
22700.000000 39.968 -38.4297
23000.000000 36.336 25.0000
23300.000000 33.487 39.4531
23600.000000 32.239 -112.8438
24000.000000 31.663 -106.6641
