* Measurement data measured by REW V5.20.13
* Source: Headset (DS by VECLAN.COM), MICROPHONE (Master Volume), L, volume: 0.720. Timing signal peak level -18.4 dBFS, measurement signal peak level -15.7 dBFS
* Format: 2M Log Swept Sine, 1 sweep at -12.0 dBFS using an acoustic timing reference
* Dated: Feb 24, 2024 3:12:54 PM
* REW Settings:
*  C-weighting compensation: Off
*  Target level: 75.0 dB
* Note: ; Delay -0.0671 ms (-23 mm, -0.91 in) using estimated IR delay relative to Acoustic reference played from HEADPHONE L with no timing offset
* Measurement: Kiwi Ears Quintet L
* Smoothing: 1/24 octave
* Frequency Step: 1/48 octave
* Start Frequency: 1.000 Hz
*
* Freq(Hz) SPL(dB) Phase(degrees)
1.000000 75.665 -7.6849
1.015000 76.089 -8.8671
1.030000 76.498 -10.0390
1.044000 76.864 -11.1201
1.060000 77.260 -12.3367
1.075000 77.607 -13.4551
1.090000 77.927 -14.5480
1.106000 78.238 -15.6876
1.120000 78.498 -16.6950
1.138000 78.819 -18.0107
1.150000 79.026 -18.8987
1.172000 79.390 -20.5446
1.180000 79.518 -21.1475
1.206000 79.917 -23.1173
1.220000 80.122 -24.1812
1.241000 80.418 -25.7756
1.250000 80.541 -26.4569
1.265000 80.740 -27.5877
1.280000 80.933 -28.7106
1.315000 81.361 -31.2853
1.320000 81.420 -31.6465
1.340000 81.650 -33.0716
1.360000 81.872 -34.4600
1.380000 82.088 -35.8059
1.400000 82.297 -37.1032
1.430000 82.602 -38.9453
1.450000 82.800 -40.0954
1.475000 83.043 -41.4360
1.500000 83.267 -42.6762
1.525000 83.473 -43.8266
1.550000 83.663 -44.8962
1.575000 83.837 -45.8940
1.600000 83.999 -46.8290
1.625000 84.149 -47.7103
1.650000 84.291 -48.5469
1.675000 84.426 -49.3478
1.700000 84.555 -50.1220
1.725000 84.682 -50.8786
1.750000 84.807 -51.6265
1.775000 84.933 -52.3749
1.800000 85.061 -53.1326
1.825000 85.195 -53.9088
1.850000 85.331 -54.6987
1.875000 85.463 -55.4740
1.900000 85.592 -56.2340
1.925000 85.718 -56.9787
1.950000 85.840 -57.7087
1.975000 85.960 -58.4242
2.000000 86.078 -59.1256
2.030000 86.217 -59.9492
2.060000 86.355 -60.7535
2.090000 86.492 -61.5392
2.120000 86.628 -62.3068
2.140000 86.720 -62.8088
2.180000 86.904 -63.7902
2.200000 86.997 -64.2699
2.240000 87.184 -65.1951
2.270000 87.325 -65.8583
2.300000 87.465 -66.4983
2.330000 87.605 -67.1181
2.360000 87.744 -67.7206
2.400000 87.929 -68.5021
2.430000 88.065 -69.0755
2.470000 88.246 -69.8288
2.500000 88.379 -70.3890
2.540000 88.553 -71.1352
2.580000 88.723 -71.8843
2.620000 88.890 -72.6194
2.650000 89.013 -73.1599
2.690000 89.175 -73.8685
2.720000 89.294 -74.3924
2.760000 89.451 -75.0832
2.800000 89.606 -75.7677
2.850000 89.797 -76.6189
2.900000 89.984 -77.4703
2.950000 90.169 -78.3264
3.000000 90.351 -79.1824
3.040000 90.494 -79.8650
3.070000 90.600 -80.3753
3.110000 90.739 -81.0527
3.150000 90.876 -81.7263
3.200000 91.045 -82.5618
3.250000 91.210 -83.3887
3.300000 91.372 -84.2057
3.350000 91.531 -85.0088
3.400000 91.686 -85.7985
3.450000 91.838 -86.5789
3.500000 91.987 -87.3541
3.550000 92.132 -88.1283
3.600000 92.274 -88.9055
3.650000 92.413 -89.6900
3.700000 92.548 -90.4850
3.750000 92.679 -91.2888
3.820000 92.857 -92.4215
3.870000 92.980 -93.2306
3.950000 93.171 -94.5142
4.000000 93.286 -95.3035
4.060000 93.420 -96.2327
4.120000 93.548 -97.1481
4.180000 93.673 -98.0523
4.250000 93.812 -99.0948
4.310000 93.926 -99.9796
4.370000 94.037 -100.8579
4.440000 94.160 -101.8776
4.500000 94.260 -102.7497
4.550000 94.341 -103.4720
4.620000 94.449 -104.4707
4.680000 94.538 -105.3102
4.750000 94.638 -106.2638
4.820000 94.734 -107.1878
4.870000 94.799 -107.8335
4.940000 94.886 -108.7176
5.000000 94.958 -109.4571
5.080000 95.051 -110.4170
5.150000 95.130 -111.2325
5.220000 95.206 -112.0240
5.300000 95.289 -112.9001
5.380000 95.369 -113.7475
5.450000 95.438 -114.4669
5.520000 95.507 -115.1662
5.600000 95.584 -115.9346
5.700000 95.679 -116.8559
5.800000 95.773 -117.7475
5.900000 95.868 -118.6207
6.000000 95.964 -119.4627
6.080000 96.040 -120.1202
6.150000 96.107 -120.6913
6.220000 96.175 -121.2644
6.300000 96.252 -121.9204
6.400000 96.349 -122.7342
6.500000 96.445 -123.5487
6.600000 96.540 -124.3718
6.700000 96.633 -125.2043
6.800000 96.725 -126.0430
6.900000 96.813 -126.8881
7.000000 96.898 -127.7406
7.100000 96.979 -128.6049
7.200000 97.056 -129.4738
7.300000 97.128 -130.3378
7.400000 97.195 -131.1945
7.500000 97.256 -132.0505
7.620000 97.324 -133.0623
7.750000 97.390 -134.1229
7.880000 97.447 -135.1548
8.000000 97.494 -136.0730
8.120000 97.538 -136.9474
8.250000 97.580 -137.8488
8.380000 97.619 -138.7057
8.500000 97.655 -139.4565
8.620000 97.689 -140.1661
8.750000 97.727 -140.9030
8.850000 97.757 -141.4538
9.000000 97.803 -142.2440
9.120000 97.841 -142.8623
9.250000 97.885 -143.5298
9.380000 97.932 -144.1880
9.500000 97.973 -144.7992
9.620000 98.011 -145.4214
9.750000 98.050 -146.1023
9.880000 98.080 -146.7886
10.000000 98.098 -147.4304
10.150000 98.109 -148.2387
10.300000 98.109 -149.0299
10.440000 98.096 -149.7552
10.600000 98.073 -150.5578
10.750000 98.049 -151.2731
10.900000 98.021 -151.9569
11.060000 97.991 -152.6491
11.200000 97.964 -153.2233
11.380000 97.932 -153.9197
11.500000 97.911 -154.3542
11.720000 97.878 -155.1093
11.800000 97.868 -155.3748
12.060000 97.846 -156.2103
12.200000 97.841 -156.6673
12.410000 97.838 -157.3607
12.500000 97.837 -157.6652
12.650000 97.836 -158.1823
12.800000 97.835 -158.7080
13.150000 97.826 -159.9645
13.200000 97.825 -160.1435
13.400000 97.815 -160.8597
13.600000 97.805 -161.5578
13.800000 97.794 -162.2296
14.000000 97.784 -162.8773
14.300000 97.772 -163.8090
14.500000 97.768 -164.4160
14.750000 97.767 -165.1862
15.000000 97.772 -165.9826
15.250000 97.777 -166.8277
15.500000 97.776 -167.6960
15.750000 97.765 -168.5640
16.000000 97.741 -169.3817
16.250000 97.710 -170.1050
16.500000 97.677 -170.7202
16.750000 97.652 -171.2152
17.000000 97.645 -171.6451
17.250000 97.655 -172.0591
17.500000 97.683 -172.5242
17.750000 97.718 -173.1047
18.000000 97.750 -173.7989
18.250000 97.767 -174.6031
18.500000 97.762 -175.4318
18.750000 97.735 -176.2123
19.000000 97.688 -176.8766
19.250000 97.636 -177.3554
19.500000 97.590 -177.6679
19.750000 97.562 -177.8351
20.000000 97.561 -177.9549
20.299999 97.591 -178.1638
20.600000 97.642 -178.5467
20.900000 97.696 -179.1553
21.200001 97.731 -179.9529
21.400000 97.738 179.4733
21.799999 97.715 178.3473
22.000000 97.690 177.8481
22.400000 97.631 177.0291
22.700001 97.593 176.5377
23.000000 97.567 176.0835
23.299999 97.549 175.6099
23.600000 97.534 175.0979
24.000000 97.511 174.3733
24.299999 97.488 173.8417
24.700001 97.455 173.1979
25.000000 97.436 172.7654
25.400000 97.424 172.2086
25.799999 97.428 171.5864
26.200001 97.435 170.8344
26.500000 97.432 170.1919
26.900000 97.408 169.2952
27.200001 97.374 168.6634
27.600000 97.315 167.9601
28.000000 97.256 167.4527
28.500000 97.212 166.9971
29.000000 97.206 166.4981
29.500000 97.210 165.7939
30.000000 97.191 164.9580
30.400000 97.155 164.3415
30.700001 97.123 163.9614
31.100000 97.089 163.5468
31.500000 97.072 163.1505
32.000000 97.069 162.5300
32.500000 97.057 161.7324
33.000000 97.018 160.8947
33.500000 96.959 160.1724
34.000000 96.904 159.6003
34.500000 96.865 159.0912
35.000000 96.840 158.5555
35.500000 96.819 157.9609
36.000000 96.793 157.3246
36.500000 96.761 156.6776
37.000000 96.722 156.0596
37.500000 96.679 155.5007
38.200001 96.629 154.7879
38.700001 96.599 154.2585
39.500000 96.540 153.3667
40.000000 96.494 152.8826
40.599998 96.452 152.3998
41.200001 96.431 151.8627
41.799999 96.409 151.1548
42.500000 96.350 150.2793
43.099998 96.286 149.6985
43.700001 96.242 149.2038
44.400002 96.205 148.4945
45.000000 96.151 147.8058
45.500000 96.090 147.3441
46.200001 96.019 146.9360
46.799999 95.994 146.6096
47.500000 95.982 146.0129
48.200001 95.948 145.2770
48.700001 95.909 144.7962
49.400002 95.852 144.2477
50.000000 95.810 143.8330
50.799999 95.761 143.2694
51.500000 95.714 142.7873
52.200001 95.671 142.3485
53.000000 95.631 141.8096
53.799999 95.582 141.1628
54.500000 95.522 140.6385
55.200001 95.466 140.2234
56.000000 95.421 139.7099
57.000000 95.348 138.9243
58.000000 95.260 138.3498
59.000000 95.206 137.8260
60.000000 95.148 137.1713
60.799999 95.099 136.6944
61.500000 95.063 136.2368
62.200001 95.016 135.7327
63.000000 94.954 135.2373
64.000000 94.896 134.6277
65.000000 94.827 133.8585
66.000000 94.738 133.2408
67.000000 94.672 132.6991
68.000000 94.608 132.1063
69.000000 94.543 131.5452
70.000000 94.477 130.9886
71.000000 94.411 130.4936
72.000000 94.355 130.0029
73.000000 94.298 129.4615
74.000000 94.234 128.9290
75.000000 94.166 128.4487
76.199997 94.088 127.9292
77.500000 94.009 127.3648
78.800003 93.925 126.7700
80.000000 93.838 126.2470
81.199997 93.759 125.7372
82.500000 93.668 125.0674
83.800003 93.559 124.5240
85.000000 93.494 124.1437
86.199997 93.450 123.5495
87.500000 93.376 122.9053
88.500000 93.328 122.5443
90.000000 93.272 121.9544
91.199997 93.223 121.4735
92.500000 93.159 120.9393
93.800003 93.078 120.5025
95.000000 93.013 120.1929
96.199997 92.958 119.8137
97.500000 92.896 119.3086
98.800003 92.824 118.7932
100.000000 92.759 118.3901
101.500000 92.691 117.9091
103.000000 92.625 117.4262
104.400002 92.563 116.9933
106.000000 92.483 116.5283
107.500000 92.410 116.1642
109.000000 92.345 115.7046
110.599998 92.265 115.1263
112.000000 92.192 114.6431
113.800003 92.108 114.0748
115.000000 92.062 113.7612
117.199997 92.003 113.2396
118.000000 91.984 113.0323
120.599998 91.890 112.1786
122.000000 91.811 111.7728
124.099998 91.706 111.2769
125.000000 91.668 111.0563
126.500000 91.609 110.6842
128.000000 91.551 110.3128
131.500000 91.410 109.5074
132.000000 91.392 109.3933
134.000000 91.328 108.9116
136.000000 91.271 108.4139
138.000000 91.213 107.9421
140.000000 91.151 107.5565
143.000000 91.078 106.9692
145.000000 91.032 106.5517
147.500000 90.974 106.0250
150.000000 90.885 105.5177
152.500000 90.783 104.9689
155.000000 90.716 104.4114
157.500000 90.705 103.9172
160.000000 90.676 103.6711
162.500000 90.570 103.5276
165.000000 90.473 103.1622
167.500000 90.455 102.2650
170.000000 90.443 101.5459
172.500000 90.389 101.3870
175.000000 90.298 101.2137
177.500000 90.198 100.7072
180.000000 90.128 100.1850
182.500000 90.098 99.7743
185.000000 90.072 99.3932
187.500000 90.020 99.0395
190.000000 89.938 98.6451
192.500000 89.848 98.1160
195.000000 89.783 97.5195
197.500000 89.739 97.0582
200.000000 89.704 96.7253
203.000000 89.668 96.2750
206.000000 89.646 95.9309
209.000000 89.606 95.6336
212.000000 89.550 95.3061
214.000000 89.548 95.1959
218.000000 89.595 95.1303
220.000000 89.563 94.8239
224.000000 89.385 93.5839
227.000000 89.335 92.8165
230.000000 89.397 92.2189
233.000000 89.436 91.6717
236.000000 89.425 91.6895
240.000000 89.334 91.7621
243.000000 89.211 91.6876
247.000000 89.143 91.2296
250.000000 89.113 90.6777
254.000000 89.093 89.9681
258.000000 89.110 89.5570
262.000000 89.077 89.3249
265.000000 89.035 89.0479
269.000000 89.016 88.5811
272.000000 88.998 88.2292
276.000000 88.960 87.7669
280.000000 88.945 87.4563
285.000000 88.939 87.0959
290.000000 88.923 86.5899
295.000000 88.853 86.1773
300.000000 88.816 85.6968
304.000000 88.844 84.9699
307.000000 88.848 84.5383
311.000000 88.835 84.2124
315.000000 88.810 83.9347
320.000000 88.769 83.6901
325.000000 88.794 83.3990
330.000000 88.867 82.8063
335.000000 88.885 82.1491
340.000000 88.836 81.7433
345.000000 88.796 81.3557
350.000000 88.810 80.8759
355.000000 88.822 80.4200
360.000000 88.786 80.2421
365.000000 88.741 80.0897
370.000000 88.722 79.7638
375.000000 88.707 79.5310
382.000000 88.769 79.4812
387.000000 88.790 79.4684
395.000000 88.783 78.6082
400.000000 88.806 78.2197
406.000000 88.787 77.6964
412.000000 88.735 77.0645
418.000000 88.712 76.5891
425.000000 88.753 76.2769
431.000000 88.784 76.1037
437.000000 88.786 75.8528
444.000000 88.787 75.3965
450.000000 88.798 75.0630
455.000000 88.807 74.8943
462.000000 88.794 74.5189
468.000000 88.779 74.2349
475.000000 88.777 74.0461
482.000000 88.788 73.7856
487.000000 88.798 73.5468
494.000000 88.808 73.2591
500.000000 88.816 73.0651
508.000000 88.824 72.8376
515.000000 88.822 72.5774
522.000000 88.831 72.3310
530.000000 88.845 72.0001
538.000000 88.856 71.7965
545.000000 88.878 71.6867
552.000000 88.898 71.6435
560.000000 88.906 71.5695
570.000000 88.916 71.1259
580.000000 88.937 70.7974
590.000000 88.955 70.5917
600.000000 88.975 70.3789
608.000000 88.979 70.2978
615.000000 88.988 70.2266
622.000000 89.002 70.1423
630.000000 89.014 70.0613
640.000000 89.028 69.9673
650.000000 89.040 69.8555
660.000000 89.052 69.7508
670.000000 89.071 69.7172
680.000000 89.103 69.7705
690.000000 89.131 69.8472
700.000000 89.170 69.8457
710.000000 89.207 69.8091
720.000000 89.232 69.8382
730.000000 89.257 70.0270
740.000000 89.279 70.1504
750.000000 89.304 70.1612
762.000000 89.340 70.2226
775.000000 89.384 70.3181
788.000000 89.422 70.4406
800.000000 89.455 70.6533
812.000000 89.481 70.8943
825.000000 89.505 71.0788
838.000000 89.557 71.1677
850.000000 89.628 71.2998
862.000000 89.687 71.4911
875.000000 89.755 71.7198
885.000000 89.806 71.9253
900.000000 89.881 72.1622
912.000000 89.943 72.3142
925.000000 90.010 72.4962
938.000000 90.076 72.6634
950.000000 90.141 72.8219
962.000000 90.207 72.9819
975.000000 90.275 73.1658
988.000000 90.341 73.3308
1000.000000 90.401 73.4488
1015.000000 90.478 73.5851
1030.000000 90.558 73.6830
1044.000000 90.640 73.7837
1060.000000 90.733 73.9847
1075.000000 90.812 74.2244
1090.000000 90.896 74.4518
1106.000000 91.000 74.6809
1120.000000 91.100 74.8557
1138.000000 91.238 75.0615
1150.000000 91.331 75.1756
1172.000000 91.507 75.3448
1180.000000 91.571 75.3841
1206.000000 91.784 75.3864
1220.000000 91.898 75.3420
1241.000000 92.068 75.2367
1250.000000 92.138 75.1772
1265.000000 92.249 75.0577
1280.000000 92.355 74.9187
1315.000000 92.584 74.5730
1320.000000 92.614 74.5267
1340.000000 92.722 74.3504
1360.000000 92.808 74.1630
1380.000000 92.889 73.9941
1400.000000 92.976 73.8664
1430.000000 93.112 73.7216
1450.000000 93.200 73.6411
1475.000000 93.304 73.5740
1500.000000 93.406 73.5393
1525.000000 93.506 73.5115
1550.000000 93.601 73.5340
1575.000000 93.693 73.5841
1600.000000 93.786 73.6511
1625.000000 93.876 73.7337
1650.000000 93.967 73.8303
1675.000000 94.063 73.9357
1700.000000 94.159 74.0497
1725.000000 94.258 74.1796
1750.000000 94.358 74.3116
1775.000000 94.458 74.4501
1800.000000 94.559 74.5918
1825.000000 94.661 74.7248
1850.000000 94.766 74.8531
1875.000000 94.875 74.9723
1900.000000 94.986 75.0856
1925.000000 95.097 75.1931
1950.000000 95.211 75.2876
1975.000000 95.326 75.3660
2000.000000 95.444 75.4246
2030.000000 95.587 75.4678
2060.000000 95.731 75.4853
2090.000000 95.877 75.4706
2120.000000 96.025 75.4093
2140.000000 96.125 75.3482
2180.000000 96.321 75.1801
2200.000000 96.418 75.0638
2240.000000 96.609 74.7640
2270.000000 96.750 74.4876
2300.000000 96.889 74.1653
2330.000000 97.028 73.7813
2360.000000 97.164 73.3416
2400.000000 97.336 72.6888
2430.000000 97.459 72.1405
2470.000000 97.614 71.3256
2500.000000 97.721 70.6623
2540.000000 97.849 69.7132
2580.000000 97.962 68.6893
2620.000000 98.056 67.6091
2650.000000 98.112 66.7746
2690.000000 98.170 65.6336
2720.000000 98.198 64.7663
2760.000000 98.214 63.6123
2800.000000 98.208 62.4707
2850.000000 98.173 61.0868
2900.000000 98.108 59.7784
2950.000000 98.015 58.5782
3000.000000 97.900 57.4993
3040.000000 97.795 56.7335
3070.000000 97.709 56.2210
3110.000000 97.587 55.6183
3150.000000 97.458 55.1089
3200.000000 97.289 54.6085
3250.000000 97.114 54.2454
3300.000000 96.933 54.0224
3350.000000 96.746 53.9407
3400.000000 96.563 53.9799
3450.000000 96.385 54.1480
3500.000000 96.210 54.4449
3550.000000 96.043 54.8563
3600.000000 95.885 55.3735
3650.000000 95.733 55.9981
3700.000000 95.587 56.7239
3750.000000 95.452 57.5334
3820.000000 95.282 58.7956
3870.000000 95.170 59.7787
3950.000000 95.014 61.4336
4000.000000 94.933 62.5015
4060.000000 94.849 63.8011
4120.000000 94.782 65.0975
4180.000000 94.729 66.3792
4250.000000 94.683 67.8397
4310.000000 94.652 69.0581
4370.000000 94.623 70.2370
4440.000000 94.594 71.5568
4500.000000 94.576 72.6342
4550.000000 94.567 73.4839
4620.000000 94.559 74.5970
4680.000000 94.554 75.4748
4750.000000 94.549 76.4000
4820.000000 94.543 77.2214
4870.000000 94.536 77.7470
4940.000000 94.518 78.4047
5000.000000 94.493 78.9028
5080.000000 94.441 79.4962
5150.000000 94.375 79.9725
5220.000000 94.289 80.4352
5300.000000 94.162 80.9976
5380.000000 94.007 81.6471
5450.000000 93.853 82.3242
5520.000000 93.686 83.1358
5600.000000 93.482 84.2624
5700.000000 93.218 86.0035
5800.000000 92.967 88.1023
5900.000000 92.743 90.5114
6000.000000 92.552 93.1430
6080.000000 92.434 95.3264
6150.000000 92.353 97.2559
6220.000000 92.289 99.1737
6300.000000 92.232 101.3245
6400.000000 92.179 103.9349
6500.000000 92.135 106.4902
6600.000000 92.089 109.0633
6700.000000 92.048 111.7247
6800.000000 92.026 114.5414
6900.000000 92.053 117.5406
7000.000000 92.148 120.7039
7100.000000 92.319 123.9431
7200.000000 92.573 127.1056
7300.000000 92.915 129.9889
7400.000000 93.335 132.3835
7500.000000 93.816 134.1144
7620.000000 94.455 135.1042
7750.000000 95.153 134.6100
7880.000000 95.685 132.2527
8000.000000 95.940 128.3302
8120.000000 95.846 123.2114
8250.000000 95.228 118.0667
8380.000000 94.161 115.6675
8500.000000 93.052 116.6340
8620.000000 92.055 119.7259
8750.000000 91.131 124.3147
8850.000000 90.500 128.6532
9000.000000 89.756 136.6640
9120.000000 89.439 143.9607
9250.000000 89.435 151.8926
9380.000000 89.751 158.9763
9500.000000 90.249 164.2693
9620.000000 90.885 168.0568
9750.000000 91.641 170.0563
9880.000000 92.315 169.6407
10000.000000 92.723 167.3490
10150.000000 92.812 163.0668
10300.000000 92.411 159.0806
10440.000000 91.697 157.0199
10600.000000 90.677 157.2036
10750.000000 89.692 159.5684
10900.000000 88.794 163.4924
11060.000000 87.983 168.8232
11200.000000 87.407 174.0813
11380.000000 86.833 -178.7283
11500.000000 86.539 -173.7953
11720.000000 86.164 -164.4339
11800.000000 86.098 -160.8710
12060.000000 86.277 -149.7061
12200.000000 86.604 -144.6247
12410.000000 87.322 -140.1414
12500.000000 87.534 -139.8712
12650.000000 87.599 -140.2432
12800.000000 87.400 -140.2453
13150.000000 86.455 -137.4681
13200.000000 86.288 -136.7367
13400.000000 85.592 -132.8999
13600.000000 84.938 -127.6910
13800.000000 84.429 -121.4520
14000.000000 84.148 -114.7245
14300.000000 84.231 -105.8103
14500.000000 84.479 -102.2882
14750.000000 84.612 -101.3143
15000.000000 84.206 -102.3215
15250.000000 83.222 -101.9602
15500.000000 81.963 -98.2906
15750.000000 80.794 -91.3645
16000.000000 79.978 -82.6437
16250.000000 79.535 -74.3460
16500.000000 79.246 -67.6337
16750.000000 78.869 -62.4759
17000.000000 78.232 -57.8233
17250.000000 77.309 -51.9714
17500.000000 76.260 -43.6148
17750.000000 75.346 -32.6673
18000.000000 74.820 -20.1226
18250.000000 74.859 -7.5578
18500.000000 75.500 3.1446
18750.000000 76.532 10.5478
19000.000000 77.550 14.7552
19250.000000 78.207 17.0273
19500.000000 78.365 18.2075
19750.000000 78.043 18.3159
20000.000000 77.205 17.5007
20300.000000 75.491 17.0532
20600.000000 73.216 19.7666
20900.000000 70.738 25.9356
21200.000000 68.454 33.0482
21400.000000 67.123 35.4991
21800.000000 64.363 -10.1697
22000.000000 62.296 -178.8197
22400.000000 55.445 -128.5632
22700.000000 48.100 -27.7852
23000.000000 39.860 79.6816
23300.000000 33.573 68.4805
23600.000000 31.790 161.4219
24000.000000 31.593 -40.1328
