* Measurement data measured by REW V5.20.13
* Source: Microphone (Realtek(R) Audio), MICROPHONE (Master Volume), L, volume: 0.710. Timing signal peak level -37.6 dBFS, measurement signal peak level -37.3 dBFS
* Format: 2M Log Swept Sine, 1 sweep at -12.0 dBFS using an acoustic timing reference
* Dated: Sep 7, 2023 3:43:49 PM
* REW Settings:
*  C-weighting compensation: Off
*  Target level: 75.0 dB
* Note: ; Delay -0.0556 ms (-19 mm, -0.75 in) using estimated IR delay relative to Acoustic reference played from HEADPHONE L with no timing offset Clock adjustment: 120.8 ppm
* Measurement: KZ Krila UDUU L
* Smoothing: 1/48 octave
* Frequency Step: 1/96 octave
* Start Frequency: 20.000 Hz
*
* Freq(Hz) SPL(dB) Phase(degrees)
20.000000 94.197 3.4617
20.144928 94.186 3.2430
20.290907 94.175 3.0244
20.437943 94.164 2.8077
20.586044 94.153 2.5965
20.735220 94.142 2.3909
20.885475 94.131 2.1854
21.036821 94.121 1.9783
21.189262 94.112 1.7703
21.342808 94.102 1.5604
21.497467 94.093 1.3489
21.653246 94.084 1.1350
21.810154 94.075 0.9197
21.968201 94.065 0.6989
22.127390 94.056 0.4672
22.287735 94.046 0.2302
22.449242 94.035 -0.0048
22.611917 94.022 -0.2390
22.775772 94.009 -0.4666
22.940815 93.995 -0.6873
23.107054 93.980 -0.9014
23.274498 93.966 -1.1086
23.443153 93.952 -1.3093
23.613033 93.940 -1.5005
23.784142 93.929 -1.6904
23.956491 93.920 -1.8870
24.130091 93.913 -2.0912
24.304947 93.906 -2.3130
24.481071 93.899 -2.5493
24.658470 93.890 -2.7979
24.837156 93.879 -3.0573
25.017136 93.864 -3.3192
25.198421 93.845 -3.5820
25.381020 93.823 -3.8246
25.564941 93.799 -4.0477
25.750195 93.774 -4.2391
25.936790 93.749 -4.4012
26.124741 93.728 -4.5453
26.314051 93.710 -4.6733
26.504732 93.696 -4.8013
26.696796 93.686 -4.9326
26.890253 93.678 -5.0867
27.085112 93.671 -5.2617
27.281382 93.662 -5.4649
27.479073 93.651 -5.6833
27.678198 93.636 -5.9079
27.878765 93.617 -6.1259
28.080786 93.595 -6.3303
28.284271 93.572 -6.5134
28.489231 93.549 -6.6732
28.695675 93.528 -6.8152
28.903616 93.508 -6.9440
29.113064 93.492 -7.0760
29.324028 93.479 -7.2137
29.536524 93.466 -7.3632
29.750557 93.453 -7.5216
29.966141 93.439 -7.6886
30.183289 93.424 -7.8605
30.402010 93.408 -8.0367
30.622314 93.393 -8.2139
30.844217 93.377 -8.4009
31.067726 93.362 -8.6010
31.292856 93.345 -8.8217
31.519617 93.326 -9.0560
31.748020 93.303 -9.2976
31.978081 93.275 -9.5244
32.209808 93.243 -9.7277
32.443211 93.210 -9.8860
32.678310 93.181 -10.0060
32.915108 93.156 -10.0914
33.153625 93.141 -10.1796
33.393871 93.133 -10.2961
33.635857 93.130 -10.4644
33.879597 93.126 -10.7019
34.125103 93.118 -10.9911
34.372387 93.100 -11.3165
34.621464 93.071 -11.6189
34.872345 93.034 -11.8695
35.125042 92.994 -12.0433
35.379574 92.959 -12.1395
35.635948 92.934 -12.1962
35.894180 92.921 -12.2464
36.154285 92.918 -12.3470
36.416275 92.917 -12.5206
36.680161 92.912 -12.7590
36.945961 92.897 -13.0403
37.213688 92.870 -13.3052
37.483353 92.836 -13.5127
37.754974 92.798 -13.6428
38.028561 92.766 -13.6957
38.304131 92.745 -13.7228
38.581699 92.734 -13.7704
38.861279 92.729 -13.8718
39.142883 92.722 -14.0441
39.426529 92.704 -14.2527
39.712231 92.675 -14.4417
40.000000 92.639 -14.5674
40.289856 92.604 -14.6021
40.581814 92.579 -14.5585
40.875885 92.571 -14.5073
41.172089 92.578 -14.5215
41.470440 92.591 -14.6529
41.770950 92.601 -14.9179
42.073643 92.593 -15.2798
42.378525 92.563 -15.6522
42.685616 92.517 -15.9558
42.994934 92.462 -16.1465
43.306492 92.411 -16.2240
43.620308 92.371 -16.2308
43.936401 92.346 -16.2355
44.254780 92.329 -16.2968
44.575470 92.315 -16.4292
44.898483 92.295 -16.6125
45.223835 92.268 -16.8132
45.551544 92.235 -17.0016
45.881630 92.199 -17.1642
46.214108 92.162 -17.3022
46.548996 92.127 -17.4222
46.886307 92.093 -17.5255
47.226067 92.062 -17.6121
47.568283 92.037 -17.6892
47.912983 92.018 -17.7782
48.260181 92.004 -17.9067
48.609894 91.989 -18.0889
48.962143 91.968 -18.3128
49.316940 91.938 -18.5410
49.674313 91.901 -18.7278
50.034271 91.862 -18.8457
50.396843 91.827 -18.9011
50.762039 91.801 -18.9286
51.129883 91.783 -18.9678
51.500389 91.768 -19.0389
51.873581 91.751 -19.1345
52.249481 91.730 -19.2315
52.628101 91.706 -19.3109
53.009464 91.683 -19.3735
53.393593 91.660 -19.4343
53.780506 91.635 -19.5002
54.170223 91.605 -19.5576
54.562763 91.574 -19.5866
54.958145 91.546 -19.5927
55.356396 91.525 -19.6208
55.757530 91.506 -19.7249
56.161572 91.478 -19.9104
56.568542 91.434 -20.1077
56.978462 91.380 -20.2255
57.391350 91.335 -20.2573
57.807232 91.312 -20.3300
58.226128 91.299 -20.6065
58.648056 91.261 -21.1039
59.073048 91.170 -21.6075
59.501114 91.037 -21.7828
59.932281 90.916 -21.4585
60.366577 90.866 -20.8319
60.804020 90.900 -20.3394
61.244629 90.971 -20.2811
61.688435 91.022 -20.6089
62.135452 91.026 -21.0294
62.585712 91.005 -21.3092
63.039234 90.985 -21.4473
63.496040 90.974 -21.5626
63.956161 90.958 -21.7043
64.419617 90.929 -21.8008
64.886421 90.898 -21.7992
65.356621 90.876 -21.7557
65.830215 90.855 -21.7564
66.307251 90.824 -21.7828
66.787743 90.783 -21.7449
67.271713 90.749 -21.6265
67.759193 90.734 -21.5468
68.250206 90.724 -21.6200
68.744774 90.699 -21.8232
69.242928 90.652 -22.0256
69.744690 90.597 -22.1404
70.250084 90.549 -22.1821
70.759148 90.513 -22.2104
71.271896 90.486 -22.2634
71.788361 90.462 -22.3613
72.308571 90.435 -22.5020
72.832550 90.399 -22.6340
73.360321 90.356 -22.6806
73.891922 90.321 -22.6334
74.427376 90.298 -22.5798
74.966705 90.279 -22.5873
75.509949 90.251 -22.6143
76.057121 90.218 -22.5881
76.608261 90.193 -22.5358
77.163399 90.176 -22.5552
77.722557 90.150 -22.6698
78.285767 90.107 -22.7881
78.853058 90.058 -22.8197
79.424461 90.015 -22.7800
80.000000 89.983 -22.7391
80.579712 89.958 -22.7342
81.163628 89.934 -22.7622
81.751770 89.908 -22.7975
82.344177 89.879 -22.8120
82.940880 89.852 -22.8022
83.541901 89.828 -22.7950
84.147285 89.801 -22.7980
84.757050 89.773 -22.7798
85.371231 89.748 -22.7443
85.989868 89.727 -22.7532
86.612984 89.699 -22.8239
87.240616 89.658 -22.8690
87.872803 89.616 -22.8204
88.509560 89.590 -22.7472
89.150940 89.571 -22.7495
89.796967 89.546 -22.7966
90.447670 89.516 -22.7915
91.103088 89.495 -22.7506
91.763260 89.480 -22.7789
92.428215 89.452 -22.8566
93.097992 89.410 -22.8539
93.772614 89.374 -22.7585
94.452133 89.346 -22.7009
95.136566 89.309 -22.6991
95.825966 89.262 -22.6459
96.520363 89.222 -22.5437
97.219788 89.191 -22.4827
97.924286 89.159 -22.4611
98.633881 89.132 -22.4509
99.348625 89.107 -22.4929
100.068542 89.075 -22.5482
100.793686 89.044 -22.5088
101.524078 89.032 -22.4493
102.259766 89.025 -22.5299
103.000778 88.993 -22.6503
103.747162 88.947 -22.5924
104.498962 88.920 -22.4352
105.256203 88.905 -22.4100
106.018929 88.867 -22.4760
106.787186 88.810 -22.4296
107.561012 88.764 -22.2639
108.340446 88.736 -22.1376
109.125526 88.708 -22.1203
109.916290 88.665 -22.1017
110.712791 88.622 -21.9648
111.515060 88.597 -21.7845
112.323143 88.583 -21.6832
113.137085 88.566 -21.6752
113.956924 88.534 -21.7454
114.782700 88.477 -21.7687
115.614464 88.421 -21.6503
116.452255 88.386 -21.5678
117.296112 88.357 -21.5926
118.146095 88.337 -21.7396
119.002228 88.296 -22.1135
119.864563 88.197 -22.2526
120.733154 88.133 -21.7864
121.608040 88.165 -21.3641
122.489258 88.205 -21.3645
123.376869 88.206 -21.4039
124.270905 88.191 -21.3299
125.171425 88.167 -21.1615
126.078468 88.152 -20.9456
126.992081 88.137 -20.8860
127.912323 88.090 -20.8426
128.839233 88.051 -20.6060
129.772842 88.048 -20.4847
130.713242 88.034 -20.5805
131.660431 88.000 -20.6270
132.614502 87.963 -20.5897
133.575485 87.923 -20.4600
134.543427 87.890 -20.2274
135.518387 87.872 -20.0009
136.500412 87.858 -19.8618
137.489548 87.837 -19.7808
138.485855 87.814 -19.6995
139.489380 87.792 -19.6377
140.500168 87.768 -19.5756
141.518295 87.743 -19.4803
142.543793 87.719 -19.3516
143.576721 87.695 -19.1876
144.617142 87.673 -19.0165
145.665100 87.654 -18.8743
146.720642 87.636 -18.8196
147.783844 87.606 -18.8381
148.854752 87.567 -18.7988
149.933411 87.536 -18.6661
151.019897 87.521 -18.5209
152.114243 87.510 -18.4307
153.216522 87.486 -18.3361
154.326797 87.456 -18.1928
155.445114 87.422 -18.0282
156.571533 87.390 -17.8365
157.706116 87.373 -17.6938
158.848923 87.356 -17.7196
160.000000 87.315 -17.7418
161.159424 87.279 -17.5544
162.327255 87.275 -17.3197
163.503540 87.279 -17.1869
164.688354 87.272 -17.0865
165.881760 87.259 -16.9719
167.083801 87.236 -16.8646
168.294571 87.203 -16.7302
169.514099 87.170 -16.5460
170.742462 87.146 -16.3539
171.979736 87.128 -16.2537
173.225967 87.102 -16.2194
174.481232 87.072 -16.1508
175.745605 87.049 -16.0484
177.019119 87.035 -15.9324
178.301880 87.024 -15.8074
179.593933 87.015 -15.6618
180.895340 86.996 -15.5215
182.206177 86.966 -15.2885
183.526520 86.946 -15.0623
184.856430 86.917 -14.9564
186.195984 86.878 -14.8276
187.545227 86.848 -14.6992
188.904266 86.821 -14.5957
190.273132 86.794 -14.4648
191.651932 86.777 -14.2833
193.040726 86.767 -14.1754
194.439575 86.744 -14.1063
195.848572 86.716 -13.9713
197.267761 86.698 -13.7980
198.697250 86.686 -13.6449
200.137085 86.673 -13.4936
201.587372 86.657 -13.3483
203.048157 86.631 -13.2056
204.519531 86.598 -13.0428
206.001556 86.566 -12.8293
207.494324 86.548 -12.5895
208.997925 86.542 -12.3824
210.512405 86.539 -12.2114
212.037857 86.535 -12.0766
213.574371 86.524 -11.9843
215.122025 86.503 -11.9479
216.680893 86.467 -11.8625
218.251053 86.441 -11.6664
219.832581 86.427 -11.4803
221.425583 86.412 -11.2775
223.030121 86.395 -11.0393
224.646286 86.379 -10.8110
226.274170 86.363 -10.6274
227.913849 86.353 -10.4556
229.565399 86.357 -10.3110
231.228928 86.363 -10.2269
232.904510 86.350 -10.1278
234.592224 86.320 -9.9263
236.292191 86.288 -9.6660
238.004456 86.259 -9.5004
239.729126 86.212 -9.4212
241.466309 86.163 -9.2056
243.216080 86.142 -9.0078
244.978516 86.130 -8.9225
246.753738 86.119 -8.8524
248.541809 86.119 -8.6974
250.342850 86.135 -8.4923
252.156937 86.149 -8.3496
253.984161 86.131 -8.2220
255.824646 86.098 -7.9966
257.678467 86.080 -7.7655
259.545685 86.080 -7.5822
261.426483 86.091 -7.3853
263.320862 86.103 -7.1434
265.229004 86.100 -6.8979
267.150970 86.075 -6.6635
269.086853 86.042 -6.4751
271.036774 86.015 -6.3311
273.000824 86.000 -6.1849
274.979095 85.996 -6.0038
276.971710 85.996 -5.8467
278.978760 85.984 -5.7542
281.000336 85.960 -5.6696
283.036591 85.938 -5.5127
285.087585 85.930 -5.2759
287.153442 85.929 -5.0445
289.234283 85.915 -4.8336
291.330200 85.895 -4.5970
293.441284 85.886 -4.3704
295.567688 85.896 -4.1765
297.709503 85.921 -4.0063
299.866821 85.940 -3.8453
302.039795 85.927 -3.6566
304.228485 85.892 -3.3730
306.433044 85.863 -3.1011
308.653595 85.849 -2.8989
310.890228 85.845 -2.7435
313.143066 85.837 -2.5858
315.412231 85.826 -2.3851
317.697845 85.818 -2.1843
320.000000 85.810 -1.9785
322.318848 85.805 -1.7260
324.654510 85.805 -1.4520
327.007080 85.810 -1.2141
329.376709 85.810 -1.0637
331.763519 85.795 -0.9731
334.167603 85.765 -0.8470
336.589142 85.739 -0.6265
339.028198 85.734 -0.3335
341.484924 85.741 -0.0801
343.959473 85.736 0.1319
346.451935 85.727 0.3069
348.962463 85.725 0.3918
351.491211 85.727 0.4937
354.038239 85.728 0.7437
356.603760 85.718 1.1425
359.187866 85.700 1.5713
361.790680 85.688 1.8336
364.412354 85.679 1.8986
367.053040 85.670 1.9830
369.712860 85.665 2.1843
372.391968 85.658 2.4273
375.090454 85.650 2.6344
377.808533 85.646 2.7892
380.546265 85.645 2.9301
383.303864 85.647 3.0859
386.081451 85.646 3.2992
388.879150 85.642 3.5759
391.697144 85.631 3.8347
394.535522 85.615 4.0569
397.394501 85.606 4.2247
400.274170 85.603 4.3849
403.174744 85.604 4.6252
406.096313 85.602 4.9064
409.039062 85.594 5.1604
412.003113 85.584 5.3853
414.988647 85.564 5.6313
417.995850 85.536 5.9012
421.024811 85.514 6.1868
424.075714 85.515 6.4609
427.148743 85.522 6.6724
430.244049 85.526 6.8544
433.361786 85.534 7.0289
436.502106 85.542 7.2035
439.665161 85.539 7.3969
442.851166 85.533 7.6215
446.060242 85.530 7.8995
449.292572 85.532 8.2314
452.548340 85.530 8.5222
455.827698 85.526 8.6921
459.130798 85.523 8.7791
462.457855 85.522 8.9314
465.809021 85.523 9.2212
469.184448 85.519 9.5402
472.584381 85.507 9.8165
476.008911 85.505 10.1172
479.458252 85.509 10.5016
482.932617 85.503 10.8724
486.432159 85.496 11.1243
489.957031 85.503 11.2845
493.507477 85.508 11.4730
497.083618 85.506 11.7117
500.685699 85.501 11.9332
504.313873 85.495 12.1588
507.968323 85.492 12.3834
511.649292 85.497 12.6262
515.356934 85.512 12.9401
519.091370 85.527 13.2518
522.852966 85.524 13.4896
526.641724 85.511 13.6860
530.458008 85.497 13.9133
534.301941 85.480 14.1699
538.173706 85.474 14.2930
542.073547 85.487 14.4220
546.001648 85.501 14.7986
549.958191 85.511 15.2147
553.943420 85.524 15.5234
557.957520 85.534 15.8278
562.000671 85.533 16.1292
566.073181 85.529 16.4493
570.175171 85.537 16.7677
574.306885 85.549 17.0715
578.468567 85.561 17.3975
582.660400 85.568 17.6921
586.882568 85.568 17.9696
591.135376 85.575 18.2240
595.419006 85.581 18.4752
599.733643 85.582 18.8109
604.079590 85.600 19.0790
608.456970 85.631 19.2716
612.866089 85.654 19.5143
617.307190 85.671 19.7828
621.780457 85.686 20.0267
626.286133 85.705 20.2312
630.824463 85.729 20.4067
635.395691 85.759 20.5553
640.000000 85.795 20.6425
644.637695 85.828 20.6127
649.309021 85.850 20.4734
654.014160 85.857 20.2106
658.753418 85.832 19.8318
663.527039 85.736 19.3932
668.335205 85.571 19.1718
673.178284 85.387 19.4847
678.056396 85.237 20.3364
682.969849 85.151 21.4795
687.918945 85.128 22.6026
692.903870 85.148 23.5505
697.924927 85.182 24.3365
702.982422 85.214 25.0245
708.076477 85.252 25.5824
713.207520 85.292 26.0560
718.375732 85.329 26.4895
723.581360 85.366 26.8857
728.824707 85.401 27.3124
734.106079 85.415 27.7275
739.425720 85.414 28.1223
744.783936 85.411 28.5119
750.180908 85.414 28.9404
755.617065 85.408 29.4797
761.092529 85.397 29.9836
766.607727 85.398 30.4974
772.162903 85.415 31.1140
777.758301 85.422 31.8027
783.394287 85.435 32.4192
789.071045 85.482 32.9286
794.789001 85.537 33.4346
800.548340 85.587 33.9093
806.349487 85.637 34.3572
812.192627 85.683 34.8510
818.078125 85.721 35.3511
824.006226 85.751 35.7451
829.977295 85.777 36.1072
835.991699 85.802 36.5458
842.049622 85.830 37.0068
848.151428 85.870 37.4013
854.297485 85.909 37.7808
860.488098 85.942 38.2093
866.723572 85.975 38.6262
873.004211 86.012 39.0240
879.330322 86.054 39.4708
885.702332 86.100 39.9159
892.120483 86.141 40.3120
898.585144 86.183 40.7330
905.096680 86.225 41.1889
911.655396 86.261 41.6027
918.261597 86.300 41.9859
924.915710 86.342 42.3565
931.618042 86.382 42.7377
938.368896 86.426 43.1396
945.168762 86.472 43.5056
952.017822 86.515 43.8845
958.916504 86.569 44.3400
965.865234 86.629 44.7634
972.864319 86.675 45.1181
979.914062 86.710 45.4766
987.014954 86.753 45.8384
994.167236 86.811 46.2023
1001.371399 86.869 46.5867
1008.627747 86.920 46.9760
1015.936646 86.969 47.3573
1023.298584 87.015 47.7120
1030.713867 87.067 48.0150
1038.182739 87.126 48.3070
1045.705933 87.188 48.6070
1053.283447 87.250 48.9117
1060.916016 87.313 49.2088
1068.603882 87.372 49.5176
1076.347412 87.421 49.8224
1084.147095 87.466 50.0757
1092.003296 87.518 50.2809
1099.916382 87.582 50.5469
1107.886841 87.650 50.8715
1115.915039 87.719 51.1456
1124.001343 87.790 51.3466
1132.146362 87.853 51.5207
1140.350342 87.916 51.7387
1148.613770 87.978 52.0024
1156.937134 88.041 52.2392
1165.320801 88.109 52.4303
1173.765137 88.176 52.6460
1182.270752 88.238 52.8700
1190.838013 88.301 53.0758
1199.467285 88.366 53.3012
1208.159180 88.432 53.4546
1216.913940 88.504 53.5782
1225.732178 88.573 53.7718
1234.614380 88.630 53.9720
1243.560913 88.685 54.1376
1252.572266 88.749 54.2774
1261.648926 88.816 54.4145
1270.791382 88.884 54.6029
1280.000000 88.951 54.8021
1289.275391 89.017 54.9525
1298.618042 89.077 55.1245
1308.028320 89.135 55.3331
1317.506836 89.198 55.5188
1327.054077 89.259 55.6737
1336.670410 89.314 55.8314
1346.356567 89.362 55.9974
1356.112793 89.401 56.1569
1365.939697 89.434 56.3093
1375.837891 89.484 56.4768
1385.807739 89.541 56.6442
1395.849854 89.588 56.8179
1405.964844 89.636 56.9918
1416.152954 89.695 57.1817
1426.415039 89.754 57.3544
1436.751465 89.809 57.5125
1447.162720 89.866 57.6992
1457.649414 89.923 57.8701
1468.212158 89.974 58.0397
1478.851440 90.026 58.2422
1489.567871 90.081 58.4267
1500.361816 90.139 58.5933
1511.234131 90.194 58.7625
1522.185059 90.245 58.9339
1533.215454 90.296 59.0933
1544.325806 90.353 59.2752
1555.516602 90.409 59.4509
1566.788574 90.457 59.6075
1578.142090 90.508 59.7742
1589.578003 90.562 59.9506
1601.096680 90.616 60.1384
1612.698975 90.672 60.3500
1624.385254 90.729 60.5554
1636.156250 90.786 60.7308
1648.012451 90.839 60.9156
1659.954590 90.890 61.1321
1671.983398 90.941 61.3542
1684.099243 90.997 61.5242
1696.302856 91.054 61.6731
1708.594971 91.111 61.8413
1720.976196 91.165 62.0335
1733.447144 91.217 62.2066
1746.008423 91.272 62.3662
1758.660645 91.332 62.5788
1771.404663 91.392 62.8115
1784.240967 91.449 63.0113
1797.170288 91.508 63.1972
1810.193359 91.572 63.4266
1823.310791 91.640 63.6654
1836.523193 91.704 63.8371
1849.831421 91.770 63.9764
1863.236084 91.840 64.1152
1876.737793 91.909 64.2443
1890.337524 91.976 64.3586
1904.035645 92.043 64.4670
1917.833008 92.111 64.5815
1931.730469 92.180 64.7059
1945.728638 92.248 64.8295
1959.828125 92.313 64.9215
1974.029907 92.377 65.0143
1988.334473 92.442 65.1022
2002.742798 92.507 65.1719
2017.255493 92.571 65.2243
2031.873291 92.637 65.2723
2046.597168 92.701 65.3315
2061.427734 92.764 65.3912
2076.365479 92.826 65.4429
2091.411865 92.889 65.4887
2106.566895 92.955 65.5194
2121.832031 93.023 65.5489
2137.207764 93.089 65.5766
2152.694824 93.156 65.5904
2168.294189 93.220 65.6148
2184.006592 93.280 65.6255
2199.832764 93.338 65.6074
2215.773682 93.398 65.5865
2231.830078 93.459 65.5650
2248.002686 93.519 65.5453
2264.292725 93.581 65.5295
2280.700684 93.641 65.5184
2297.227539 93.701 65.5033
2313.874268 93.762 65.4693
2330.641602 93.820 65.4201
2347.530273 93.873 65.3520
2364.541504 93.926 65.2709
2381.676025 93.982 65.1921
2398.934570 94.041 65.1130
2416.318359 94.095 65.0267
2433.827881 94.146 64.9185
2451.464355 94.193 64.7869
2469.228760 94.239 64.6609
2487.121826 94.284 64.5721
2505.144531 94.328 64.4789
2523.297852 94.372 64.3723
2541.582764 94.416 64.2364
2560.000000 94.460 64.0725
2578.550781 94.501 63.9003
2597.236084 94.538 63.7557
2616.056641 94.573 63.6447
2635.013672 94.605 63.5074
2654.108154 94.638 63.3461
2673.340820 94.670 63.1925
2692.713135 94.697 63.0596
2712.225586 94.721 62.9321
2731.879395 94.743 62.8064
2751.675781 94.762 62.6922
2771.615479 94.777 62.5764
2791.699707 94.789 62.4565
2811.929688 94.801 62.3556
2832.305908 94.810 62.2748
2852.830078 94.814 62.2101
2873.502930 94.818 62.1709
2894.325439 94.824 62.1639
2915.298828 94.827 62.1931
2936.424316 94.831 62.2622
2957.702881 94.837 62.3668
2979.135742 94.848 62.5047
3000.723633 94.866 62.6907
3022.468262 94.891 62.9056
3044.370117 94.928 63.1120
3066.430908 94.978 63.2963
3088.651611 95.043 63.4578
3111.033203 95.116 63.5497
3133.577148 95.195 63.5283
3156.284180 95.273 63.3943
3179.156006 95.342 63.1824
3202.193359 95.404 62.9071
3225.397949 95.458 62.5780
3248.770508 95.498 62.2285
3272.312500 95.529 61.8752
3296.024902 95.556 61.5359
3319.909180 95.576 61.2242
3343.966797 95.592 60.9362
3368.198486 95.607 60.6487
3392.605713 95.620 60.3481
3417.189941 95.632 60.0461
3441.952393 95.646 59.7487
3466.894287 95.659 59.4583
3492.016846 95.670 59.1649
3517.321289 95.679 58.8771
3542.809326 95.686 58.5895
3568.481934 95.691 58.2943
3594.340576 95.697 57.9892
3620.386719 95.699 57.6758
3646.621582 95.701 57.3546
3673.046387 95.698 57.0283
3699.662842 95.690 56.6996
3726.472168 95.682 56.3751
3753.475586 95.670 56.0410
3780.675049 95.656 55.6824
3808.071289 95.639 55.2989
3835.666016 95.620 54.9170
3863.460938 95.592 54.5443
3891.457275 95.559 54.1656
3919.656250 95.519 53.7805
3948.059814 95.474 53.3907
3976.668945 95.425 53.0071
4005.485596 95.372 52.6307
4034.510986 95.313 52.2555
4063.746582 95.246 51.8784
4093.194336 95.171 51.5143
4122.855469 95.093 51.1566
4152.730957 95.008 50.8252
4182.823730 94.915 50.5313
4213.133789 94.818 50.2742
4243.664062 94.716 50.0616
4274.415527 94.608 49.8997
4305.389648 94.499 49.7872
4336.588379 94.386 49.7180
4368.013184 94.267 49.6756
4399.665527 94.147 49.6670
4431.547363 94.025 49.6918
4463.660156 93.905 49.7467
4496.005371 93.787 49.8282
4528.585449 93.670 49.9357
4561.401367 93.556 50.0599
4594.455078 93.441 50.2019
4627.748535 93.331 50.3573
4661.283203 93.223 50.5157
4695.060547 93.118 50.6714
4729.083008 93.014 50.8090
4763.352051 92.906 50.9203
4797.869141 92.794 50.9977
4832.636719 92.675 51.0584
4867.655762 92.546 51.1079
4902.928711 92.408 51.1414
4938.457520 92.259 51.2066
4974.243652 92.099 51.3505
5010.289062 91.929 51.5655
5046.595703 91.754 51.8392
5083.165527 91.578 52.1786
5120.000000 91.399 52.5865
5157.101562 91.218 53.0778
5194.472168 91.032 53.6780
5232.113281 90.846 54.3419
5270.027344 90.666 55.0262
5308.216309 90.490 55.7749
5346.681641 90.318 56.5971
5385.426270 90.147 57.4833
5424.451172 89.977 58.4339
5463.758789 89.813 59.4329
5503.351562 89.658 60.4874
5543.230957 89.507 61.5956
5583.399414 89.360 62.7518
5623.859375 89.221 63.9543
5664.611816 89.087 65.1881
5705.660156 88.958 66.4740
5747.005859 88.834 67.8193
5788.650879 88.717 69.1894
5830.597656 88.607 70.5901
5872.848633 88.504 72.0378
5915.405762 88.408 73.5194
5958.271484 88.318 75.0170
6001.447266 88.237 76.5661
6044.936523 88.168 78.1275
6088.740234 88.106 79.7148
6132.861816 88.050 81.3636
6177.303223 88.006 83.0585
6222.066406 87.971 84.7472
6267.154297 87.943 86.4210
6312.568359 87.928 88.1264
6358.312012 87.924 89.8880
6404.386719 87.929 91.6967
6450.795898 87.945 93.5310
6497.541016 87.978 95.3564
6544.625000 88.022 97.1585
6592.049805 88.074 98.9828
6639.818359 88.137 100.8517
6687.933594 88.219 102.7367
6736.396973 88.321 104.5792
6785.211426 88.440 106.4111
6834.379883 88.579 108.2491
6883.904785 88.745 110.0813
6933.788574 88.941 111.8697
6984.033691 89.165 113.6058
7034.642578 89.411 115.2961
7085.618652 89.678 116.9262
7136.963867 89.967 118.4735
7188.681152 90.281 119.9458
7240.773438 90.623 121.3203
7293.243164 90.994 122.5260
7346.092773 91.397 123.5396
7399.325684 91.832 124.3506
7452.944336 92.295 124.9053
7506.951172 92.791 125.1414
7561.350098 93.314 124.9845
7616.142578 93.865 124.3564
7671.332031 94.454 123.1690
7726.921875 95.050 121.3169
7782.914551 95.583 118.7097
7839.312500 96.035 115.2962
7896.119629 96.388 111.0865
7953.337891 96.607 106.2131
8010.971191 96.664 100.9517
8069.021973 96.544 95.6300
8127.493164 96.252 90.5904
8186.388672 95.809 86.1283
8245.710938 95.253 82.4389
8305.461914 94.621 79.5939
8365.647461 93.942 77.5738
8426.267578 93.247 76.3109
8487.328125 92.556 75.7193
8548.831055 91.882 75.7165
8610.779297 91.232 76.2129
8673.176758 90.608 77.1227
8736.026367 90.007 78.3865
8799.331055 89.434 79.9471
8863.094727 88.892 81.7760
8927.320312 88.388 83.8466
8992.010742 87.924 86.1592
9057.170898 87.495 88.7020
9122.802734 87.106 91.3904
9188.910156 86.765 94.1343
9255.497070 86.456 96.8928
9322.566406 86.168 99.7475
9390.121094 85.925 102.7515
9458.166016 85.737 105.6744
9526.704102 85.576 108.4625
9595.738281 85.429 111.2068
9665.273438 85.302 113.9678
9735.311523 85.207 116.7736
9805.857422 85.141 119.5414
9876.915039 85.104 122.2524
9948.487305 85.089 124.8899
10020.578125 85.101 127.4326
10093.191406 85.136 129.9000
10166.331055 85.196 132.2496
10240.000000 85.278 134.4461
10314.203125 85.381 136.5181
10388.944336 85.497 138.4326
10464.226562 85.625 140.1292
10540.054688 85.763 141.6458
10616.432617 85.908 142.9698
10693.363281 86.056 144.0754
10770.852539 86.201 144.9881
10848.902344 86.339 145.7252
10927.517578 86.464 146.3008
11006.703125 86.569 146.7371
11086.461914 86.655 147.1023
11166.798828 86.721 147.4812
11247.718750 86.776 147.9484
11329.223633 86.843 148.4614
11411.320312 86.926 148.9592
11494.011719 87.023 149.3711
11577.301758 87.129 149.6530
11661.195312 87.243 149.8215
11745.697266 87.360 149.8981
11830.811523 87.483 149.8437
11916.542969 87.617 149.6440
12002.894531 87.765 149.2701
12089.873047 87.923 148.5939
12177.480469 88.079 147.5147
12265.723633 88.214 146.0272
12354.606445 88.305 144.1140
12444.132812 88.334 141.7705
12534.308594 88.275 139.0600
12625.136719 88.108 136.1332
12716.624023 87.822 133.2343
12808.773438 87.415 130.5846
12901.591797 86.900 128.3991
12995.082031 86.302 126.9070
13089.250000 85.646 126.1850
13184.099609 84.965 126.1725
13279.636719 84.282 126.8174
13375.867188 83.617 128.1105
13472.793945 82.984 129.9832
13570.422852 82.395 132.3182
13668.759766 81.853 135.0113
13767.809570 81.366 138.0289
13867.577148 80.935 141.2385
13968.067383 80.561 144.5044
14069.285156 80.235 147.8391
14171.237305 79.951 151.1817
14273.927734 79.701 154.5224
14377.362305 79.484 157.7845
14481.546875 79.296 160.9631
14586.486328 79.119 163.9715
14692.185547 78.936 166.7820
14798.651367 78.737 169.5292
14905.888672 78.528 172.4615
15013.902344 78.333 175.6058
15122.700195 78.194 178.6601
15232.285156 78.088 -178.5265
15342.664062 77.980 -175.8841
15453.843750 77.884 -173.3070
15565.829102 77.829 -170.8316
15678.625000 77.816 -168.5485
15792.239258 77.840 -166.4566
15906.675781 77.891 -164.7382
16021.942383 77.945 -163.5187
16138.043945 77.994 -162.9328
16254.986328 78.015 -162.9651
16372.777344 78.002 -163.4851
16491.421875 77.923 -164.5222
16610.923828 77.764 -165.8285
16731.294922 77.564 -167.0407
16852.535156 77.316 -168.0718
16974.656250 77.019 -169.1235
17097.662109 76.748 -173.1998
17221.558594 76.550 158.1658
17346.353516 76.457 21.7131
17472.052734 76.538 61.8635
17598.662109 76.816 50.3635
17726.189453 77.327 91.5355
17854.640625 77.988 134.8646
17984.021484 78.618 -176.9924
18114.341797 78.858 -131.3228
18245.605469 78.640 -85.4888
18377.820312 78.356 10.8979
18510.994141 77.948 175.7263
18645.132812 77.179 -3.2251
18780.242188 76.311 130.2549
18916.332031 75.476 -76.6462
19053.408203 74.615 -179.9922
19191.476562 73.646 156.6311
19330.546875 72.816 156.1680
19470.623047 72.067 159.7446
19611.714844 71.433 164.2375
19753.830078 71.277 165.9653
19896.974609 71.603 139.0422
