* Measurement data measured by REW V5.20.13
* Source: Microphone (Realtek(R) Audio), MICROPHONE (Master Volume), L, volume: 0.710. Timing signal peak level -37.6 dBFS, measurement signal peak level -37.4 dBFS
* Format: 2M Log Swept Sine, 1 sweep at -12.0 dBFS using an acoustic timing reference
* Dated: Sep 7, 2023 3:59:27 PM
* REW Settings:
*  C-weighting compensation: Off
*  Target level: 75.0 dB
* Note: ; Delay -0.0561 ms (-19 mm, -0.76 in) using estimated IR delay relative to Acoustic reference played from HEADPHONE L with no timing offset Clock adjustment: 120.7 ppm
* Measurement: KZ Krila DDUU L
* Smoothing: 1/24 octave
* Frequency Step: 1/48 octave
* Start Frequency: 20.000 Hz
*
* Freq(Hz) SPL(dB) Phase(degrees)
20.000000 93.991 3.7076
20.299999 93.977 3.2364
20.600000 93.960 2.7540
20.900000 93.938 2.2693
21.200001 93.910 1.8002
21.400000 93.889 1.5060
21.799999 93.843 0.9682
22.000000 93.821 0.7235
22.400000 93.781 0.2688
22.700001 93.755 -0.0585
23.000000 93.732 -0.3883
23.299999 93.711 -0.7279
23.600000 93.692 -1.0788
24.000000 93.666 -1.5626
24.299999 93.646 -1.9339
24.700001 93.618 -2.4341
25.000000 93.594 -2.8056
25.400000 93.559 -3.2826
25.799999 93.523 -3.7231
26.200001 93.488 -4.1241
26.500000 93.465 -4.4079
26.900000 93.438 -4.7808
27.200001 93.418 -5.0659
27.600000 93.392 -5.4544
28.000000 93.362 -5.8378
28.500000 93.322 -6.2859
29.000000 93.284 -6.7030
29.500000 93.247 -7.1194
30.000000 93.208 -7.5469
30.400000 93.171 -7.8784
30.700001 93.142 -8.1101
31.100000 93.106 -8.4013
31.500000 93.075 -8.6969
32.000000 93.038 -9.1126
32.500000 92.993 -9.5672
33.000000 92.938 -9.9773
33.500000 92.883 -10.2827
34.000000 92.844 -10.5273
34.500000 92.820 -10.8150
35.000000 92.796 -11.1769
35.500000 92.762 -11.5403
36.000000 92.723 -11.8344
36.500000 92.688 -12.0819
37.000000 92.657 -12.3464
37.500000 92.619 -12.6230
38.200001 92.557 -12.9324
38.700001 92.518 -13.1352
39.500000 92.444 -13.6262
40.000000 92.366 -13.8902
40.599998 92.263 -13.8840
41.200001 92.219 -13.6460
41.799999 92.240 -13.6793
42.500000 92.256 -14.3441
43.099998 92.205 -15.0441
43.700001 92.125 -15.4740
44.400002 92.057 -15.7108
45.000000 92.023 -15.9307
45.500000 91.996 -16.1610
46.200001 91.949 -16.4526
46.799999 91.911 -16.6325
47.500000 91.876 -16.8368
48.200001 91.840 -17.1129
48.700001 91.804 -17.3380
49.400002 91.741 -17.6153
50.000000 91.682 -17.7923
50.799999 91.610 -17.9846
51.500000 91.556 -18.1369
52.200001 91.514 -18.3191
53.000000 91.469 -18.6363
53.799999 91.406 -18.9197
54.500000 91.353 -19.0071
55.200001 91.317 -19.0648
56.000000 91.271 -19.1589
57.000000 91.201 -19.1442
58.000000 91.113 -19.1082
59.000000 91.007 -18.6107
60.000000 91.036 -18.1143
60.799999 91.074 -18.6618
61.500000 91.019 -19.4239
62.200001 90.915 -19.8982
63.000000 90.815 -20.1441
64.000000 90.733 -20.4082
65.000000 90.673 -20.6881
66.000000 90.618 -20.9390
67.000000 90.566 -21.0950
68.000000 90.512 -21.2213
69.000000 90.445 -21.2879
70.000000 90.373 -21.2640
71.000000 90.310 -21.2089
72.000000 90.257 -21.2181
73.000000 90.205 -21.3061
74.000000 90.153 -21.4038
75.000000 90.106 -21.5018
76.199997 90.048 -21.6045
77.500000 89.983 -21.6416
78.800003 89.920 -21.6421
80.000000 89.857 -21.6566
81.199997 89.793 -21.6458
82.500000 89.732 -21.7025
83.800003 89.660 -21.7835
85.000000 89.600 -21.7760
86.199997 89.550 -21.7791
87.500000 89.494 -21.7726
88.500000 89.451 -21.7553
90.000000 89.378 -21.7478
91.199997 89.312 -21.7024
92.500000 89.248 -21.5935
93.800003 89.202 -21.5442
95.000000 89.160 -21.5996
96.199997 89.110 -21.6583
97.500000 89.053 -21.6462
98.800003 89.000 -21.5398
100.000000 88.958 -21.4277
101.500000 88.898 -21.3406
103.000000 88.829 -21.2431
104.400002 88.770 -21.1633
106.000000 88.711 -21.0495
107.500000 88.666 -20.8860
109.000000 88.621 -20.7144
110.599998 88.554 -20.5400
112.000000 88.490 -20.4143
113.800003 88.414 -20.4566
115.000000 88.370 -20.5134
117.199997 88.340 -20.4535
118.000000 88.344 -20.3736
120.599998 88.334 -20.2713
122.000000 88.247 -20.1261
124.099998 88.118 -19.6798
125.000000 88.075 -19.5709
126.500000 88.015 -19.4609
128.000000 87.975 -19.3832
131.500000 87.893 -19.1859
132.000000 87.878 -19.1468
134.000000 87.817 -18.9876
136.000000 87.767 -18.8042
138.000000 87.739 -18.5980
140.000000 87.714 -18.3624
143.000000 87.663 -18.0586
145.000000 87.611 -17.9280
147.500000 87.543 -17.6807
150.000000 87.490 -17.3358
152.500000 87.436 -17.0989
155.000000 87.376 -16.9367
157.500000 87.333 -16.7668
160.000000 87.306 -16.4283
162.500000 87.279 -16.0516
165.000000 87.234 -15.7340
167.500000 87.194 -15.5477
170.000000 87.157 -15.4109
172.500000 87.110 -15.1812
175.000000 87.062 -14.8852
177.500000 87.026 -14.6540
180.000000 86.988 -14.4566
182.500000 86.932 -14.1333
185.000000 86.880 -13.7350
187.500000 86.834 -13.4371
190.000000 86.790 -13.1734
192.500000 86.752 -12.9019
195.000000 86.723 -12.6817
197.500000 86.698 -12.4675
200.000000 86.675 -12.2028
203.000000 86.641 -11.8803
206.000000 86.603 -11.6002
209.000000 86.570 -11.3221
212.000000 86.532 -11.0668
214.000000 86.505 -10.8725
218.000000 86.469 -10.4769
220.000000 86.449 -10.2967
224.000000 86.403 -9.9053
227.000000 86.368 -9.5864
230.000000 86.326 -9.3172
233.000000 86.290 -9.1574
236.000000 86.262 -8.8809
240.000000 86.233 -8.1226
243.000000 86.231 -7.8049
247.000000 86.215 -7.7005
250.000000 86.190 -7.5420
254.000000 86.161 -7.2191
258.000000 86.135 -6.7127
262.000000 86.101 -6.3448
265.000000 86.081 -6.1134
269.000000 86.062 -5.7869
272.000000 86.043 -5.5643
276.000000 86.010 -5.1937
280.000000 85.979 -4.8153
285.000000 85.964 -4.3965
290.000000 85.967 -3.9557
295.000000 85.955 -3.5174
300.000000 85.929 -2.9476
304.000000 85.911 -2.5440
307.000000 85.903 -2.2989
311.000000 85.895 -1.9932
315.000000 85.874 -1.6531
320.000000 85.846 -1.2712
325.000000 85.833 -0.9584
330.000000 85.829 -0.5505
335.000000 85.822 -0.0834
340.000000 85.816 0.3625
345.000000 85.795 0.8480
350.000000 85.771 1.2941
355.000000 85.765 1.7290
360.000000 85.764 2.1853
365.000000 85.740 2.4999
370.000000 85.713 2.7668
375.000000 85.710 3.0580
382.000000 85.701 3.4629
387.000000 85.682 3.8498
395.000000 85.676 4.5366
400.000000 85.673 4.8814
406.000000 85.656 5.3594
412.000000 85.647 5.8705
418.000000 85.641 6.3403
425.000000 85.623 6.8370
431.000000 85.597 7.2336
437.000000 85.576 7.6698
444.000000 85.567 8.1462
450.000000 85.557 8.5783
455.000000 85.548 8.9931
462.000000 85.544 9.5764
468.000000 85.541 9.9966
475.000000 85.534 10.4785
482.000000 85.530 10.9964
487.000000 85.538 11.3413
494.000000 85.543 11.8475
500.000000 85.543 12.2994
508.000000 85.535 12.8785
515.000000 85.535 13.3603
522.000000 85.545 13.8207
530.000000 85.543 14.3174
538.000000 85.535 14.8159
545.000000 85.556 15.3367
552.000000 85.579 15.9167
560.000000 85.584 16.5117
570.000000 85.595 17.1397
580.000000 85.619 17.7386
590.000000 85.642 18.3531
600.000000 85.656 18.8862
608.000000 85.677 19.3658
615.000000 85.702 19.7684
622.000000 85.735 20.1212
630.000000 85.783 20.4799
640.000000 85.847 20.6426
650.000000 85.867 20.2911
660.000000 85.751 19.7323
670.000000 85.496 19.9037
680.000000 85.267 21.4463
690.000000 85.206 23.4356
700.000000 85.261 24.9951
710.000000 85.329 26.1482
720.000000 85.372 27.0782
730.000000 85.405 27.8291
740.000000 85.425 28.5526
750.000000 85.425 29.3843
762.000000 85.426 30.5129
775.000000 85.460 31.7939
788.000000 85.541 33.0622
800.000000 85.630 34.1319
812.000000 85.708 35.0768
825.000000 85.783 36.0169
838.000000 85.870 36.9472
850.000000 85.950 37.8040
862.000000 86.011 38.6089
875.000000 86.074 39.4653
885.000000 86.127 40.0982
900.000000 86.220 41.0285
912.000000 86.302 41.8327
925.000000 86.388 42.6842
938.000000 86.472 43.4671
950.000000 86.552 44.1609
962.000000 86.634 44.8505
975.000000 86.723 45.5373
988.000000 86.813 46.1853
1000.000000 86.898 46.7657
1015.000000 87.010 47.4444
1030.000000 87.120 48.1022
1044.000000 87.214 48.6678
1060.000000 87.323 49.2946
1075.000000 87.432 49.9028
1090.000000 87.545 50.4965
1106.000000 87.674 51.0785
1120.000000 87.791 51.5359
1138.000000 87.937 52.0665
1150.000000 88.030 52.3827
1172.000000 88.193 52.8783
1180.000000 88.253 53.0582
1206.000000 88.447 53.6816
1220.000000 88.549 54.0116
1241.000000 88.697 54.4351
1250.000000 88.760 54.6036
1265.000000 88.867 54.8786
1280.000000 88.972 55.1522
1315.000000 89.204 55.7572
1320.000000 89.236 55.8441
1340.000000 89.353 56.1741
1360.000000 89.449 56.5082
1380.000000 89.542 56.8631
1400.000000 89.645 57.1711
1430.000000 89.809 57.6380
1450.000000 89.915 57.9763
1475.000000 90.043 58.3958
1500.000000 90.180 58.8040
1525.000000 90.303 59.2274
1550.000000 90.419 59.6597
1575.000000 90.538 60.0397
1600.000000 90.655 60.4112
1625.000000 90.770 60.7977
1650.000000 90.887 61.2107
1675.000000 91.003 61.5863
1700.000000 91.119 61.9492
1725.000000 91.236 62.2998
1750.000000 91.351 62.6357
1775.000000 91.466 62.9745
1800.000000 91.582 63.3225
1825.000000 91.698 63.6565
1850.000000 91.817 63.9654
1875.000000 91.935 64.2362
1900.000000 92.049 64.4720
1925.000000 92.166 64.6908
1950.000000 92.285 64.8874
1975.000000 92.400 65.0566
2000.000000 92.511 65.2212
2030.000000 92.644 65.3948
2060.000000 92.775 65.5315
2090.000000 92.903 65.6358
2120.000000 93.032 65.7244
2140.000000 93.117 65.7768
2180.000000 93.282 65.8339
2200.000000 93.362 65.8337
2240.000000 93.519 65.8007
2270.000000 93.631 65.7628
2300.000000 93.737 65.7029
2330.000000 93.839 65.6227
2360.000000 93.940 65.5176
2400.000000 94.069 65.3198
2430.000000 94.161 65.1504
2470.000000 94.275 64.9170
2500.000000 94.352 64.7280
2540.000000 94.450 64.4430
2580.000000 94.537 64.1549
2620.000000 94.613 63.8556
2650.000000 94.666 63.6273
2690.000000 94.731 63.3217
2720.000000 94.772 63.0889
2760.000000 94.812 62.7802
2800.000000 94.846 62.5001
2850.000000 94.874 62.2017
2900.000000 94.885 61.9784
2950.000000 94.881 61.8901
3000.000000 94.873 61.9933
3040.000000 94.872 62.2398
3070.000000 94.880 62.5068
3110.000000 94.915 62.9420
3150.000000 94.990 63.3762
3200.000000 95.135 63.7102
3250.000000 95.304 63.6376
3300.000000 95.457 63.1887
3350.000000 95.572 62.4986
3400.000000 95.647 61.6939
3450.000000 95.695 60.8733
3500.000000 95.723 60.0858
3550.000000 95.733 59.3622
3600.000000 95.735 58.6929
3650.000000 95.732 58.0476
3700.000000 95.722 57.3999
3750.000000 95.703 56.7376
3820.000000 95.656 55.7546
3870.000000 95.603 55.0302
3950.000000 95.480 53.9237
4000.000000 95.384 53.2698
4060.000000 95.252 52.5019
4120.000000 95.101 51.7804
4180.000000 94.923 51.1520
4250.000000 94.687 50.6114
4310.000000 94.466 50.3631
4370.000000 94.237 50.3083
4440.000000 93.974 50.4367
4500.000000 93.759 50.6577
4550.000000 93.589 50.8804
4620.000000 93.364 51.2142
4680.000000 93.179 51.4863
4750.000000 92.965 51.7093
4820.000000 92.737 51.8246
4870.000000 92.556 51.8723
4940.000000 92.271 52.0044
5000.000000 92.002 52.2586
5080.000000 91.617 52.8832
5150.000000 91.270 53.7217
5220.000000 90.927 54.8162
5300.000000 90.547 56.3098
5380.000000 90.188 58.0385
5450.000000 89.892 59.7262
5520.000000 89.612 61.5482
5600.000000 89.314 63.7978
5700.000000 88.972 66.8385
5800.000000 88.679 70.0975
5900.000000 88.431 73.4941
6000.000000 88.222 77.0272
6080.000000 88.090 79.9595
6150.000000 88.003 82.5978
6220.000000 87.938 85.2981
6300.000000 87.891 88.4070
6400.000000 87.882 92.3018
6500.000000 87.929 96.2436
6600.000000 88.032 100.1736
6700.000000 88.192 104.0575
6800.000000 88.429 107.8897
6900.000000 88.761 111.6036
7000.000000 89.188 115.1626
7100.000000 89.706 118.4906
7200.000000 90.319 121.4511
7300.000000 91.027 123.9018
7400.000000 91.834 125.6640
7500.000000 92.740 126.4716
7620.000000 93.945 125.6742
7750.000000 95.254 121.7761
7880.000000 96.240 114.0802
8000.000000 96.619 104.1774
8120.000000 96.355 93.6554
8250.000000 95.411 84.3790
8380.000000 94.049 78.8482
8500.000000 92.679 76.9045
8620.000000 91.357 77.2855
8750.000000 90.047 79.5385
8850.000000 89.141 82.2019
9000.000000 87.967 87.3482
9120.000000 87.197 92.1062
9250.000000 86.521 97.5494
9380.000000 85.996 103.1916
9500.000000 85.641 108.3033
9620.000000 85.376 113.1982
9750.000000 85.179 118.3601
9880.000000 85.077 123.3598
10000.000000 85.065 127.7626
10150.000000 85.145 132.8283
10300.000000 85.313 137.2324
10440.000000 85.524 140.7216
10600.000000 85.810 143.8826
10750.000000 86.081 146.0126
10900.000000 86.314 147.4631
11060.000000 86.503 148.5136
11200.000000 86.628 149.3271
11380.000000 86.786 150.4685
11500.000000 86.916 151.1324
11720.000000 87.190 151.8004
11800.000000 87.299 151.8477
12060.000000 87.706 150.9656
12200.000000 87.921 149.4819
12410.000000 88.100 145.4553
12500.000000 88.076 143.1345
12650.000000 87.845 138.8790
12800.000000 87.349 134.8329
13150.000000 85.340 130.1648
13200.000000 84.999 130.2369
13400.000000 83.641 132.2756
13600.000000 82.404 136.5531
13800.000000 81.370 142.2601
14000.000000 80.563 148.6985
14300.000000 79.706 158.4371
14500.000000 79.302 164.4961
14750.000000 78.869 171.5631
15000.000000 78.472 178.3412
15250.000000 78.132 -175.3256
15500.000000 77.892 -169.3539
15750.000000 77.840 -164.1216
16000.000000 77.908 -160.6487
16250.000000 77.955 -159.5742
16500.000000 77.830 -160.6042
16750.000000 77.457 -162.7645
17000.000000 76.934 -165.2845
17250.000000 76.556 -174.7376
17500.000000 76.687 118.7834
17750.000000 77.481 -131.0690
18000.000000 78.235 74.6623
18250.000000 78.255 153.3939
18500.000000 77.727 20.2629
18750.000000 76.600 -4.6289
19000.000000 75.036 77.7964
19250.000000 73.405 -146.7346
19500.000000 72.079 0.0952
19750.000000 71.339 113.8545
20000.000000 70.927 113.0750
