* Measurement data measured by REW V5.20.13
* Source: Trace Arithmetic result A / B
* Format: Trace Arithmetic result A / B
* Dated: Feb 24, 2024 10:20:45 PM
* REW Settings:
*  C-weighting compensation: Off
*  Target level: 75.0 dB
* Note: Trace Arithmetic A over B A = OB_KATO_L B = OB Calib
* Measurement: KATO L
* Smoothing: 1/24 octave
* Frequency Step: 1/48 octave
* Start Frequency: 20.000 Hz
*
* Freq(Hz) SPL(dB)
20.000000 73.476
20.299999 73.543
20.600000 73.458
20.900000 73.403
21.200001 73.353
21.400000 73.323
21.799999 73.274
22.000000 73.251
22.400000 73.193
22.700001 73.150
23.000000 73.116
23.299999 73.094
23.600000 73.080
24.000000 73.072
24.299999 73.068
24.700001 73.070
25.000000 73.086
25.400000 73.117
25.799999 73.136
26.200001 73.141
26.500000 73.147
26.900000 73.162
27.200001 73.173
27.600000 73.184
28.000000 73.191
28.500000 73.188
29.000000 73.169
29.500000 73.136
30.000000 73.095
30.400000 73.072
30.700001 73.066
31.100000 73.065
31.500000 73.064
32.000000 73.068
32.500000 73.067
33.000000 73.030
33.500000 72.971
34.000000 72.927
34.500000 72.908
35.000000 72.904
35.500000 72.908
36.000000 72.915
36.500000 72.917
37.000000 72.913
37.500000 72.902
38.200001 72.877
38.700001 72.860
39.500000 72.856
40.000000 72.879
40.599998 72.912
41.200001 72.912
41.799999 72.882
42.500000 72.858
43.099998 72.851
43.700001 72.844
44.400002 72.832
45.000000 72.812
45.500000 72.779
46.200001 72.720
46.799999 72.683
47.500000 72.661
48.200001 72.643
48.700001 72.631
49.400002 72.604
50.000000 72.553
50.799999 72.465
51.500000 72.423
52.200001 72.410
53.000000 72.397
53.799999 72.385
54.500000 72.372
55.200001 72.361
56.000000 72.346
57.000000 72.319
58.000000 72.303
59.000000 72.300
60.000000 72.276
60.799999 72.222
61.500000 72.174
62.200001 72.138
63.000000 72.100
64.000000 72.044
65.000000 71.984
66.000000 71.922
67.000000 71.906
68.000000 71.933
69.000000 71.950
70.000000 71.947
71.000000 71.930
72.000000 71.897
73.000000 71.847
74.000000 71.791
75.000000 71.742
76.199997 71.698
77.500000 71.674
78.800003 71.650
80.000000 71.594
81.199997 71.534
82.500000 71.504
83.800003 71.459
85.000000 71.385
86.199997 71.332
87.500000 71.307
88.500000 71.288
90.000000 71.258
91.199997 71.244
92.500000 71.227
93.800003 71.182
95.000000 71.141
96.199997 71.136
97.500000 71.126
98.800003 71.076
100.000000 71.031
101.500000 71.009
103.000000 70.987
104.400002 70.929
106.000000 70.829
107.500000 70.757
109.000000 70.737
110.599998 70.719
112.000000 70.670
113.800003 70.605
115.000000 70.574
117.199997 70.547
118.000000 70.538
120.599998 70.473
122.000000 70.413
124.099998 70.309
125.000000 70.268
126.500000 70.209
128.000000 70.157
131.500000 70.045
132.000000 70.036
134.000000 70.031
136.000000 70.022
138.000000 69.959
140.000000 69.844
143.000000 69.714
145.000000 69.714
147.500000 69.714
150.000000 69.704
152.500000 69.665
155.000000 69.603
157.500000 69.528
160.000000 69.474
162.500000 69.449
165.000000 69.397
167.500000 69.301
170.000000 69.188
172.500000 69.060
175.000000 68.959
177.500000 68.891
180.000000 68.822
182.500000 68.743
185.000000 68.661
187.500000 68.593
190.000000 68.615
192.500000 68.667
195.000000 68.663
197.500000 68.616
200.000000 68.568
203.000000 68.522
206.000000 68.474
209.000000 68.426
212.000000 68.396
214.000000 68.383
218.000000 68.317
220.000000 68.252
224.000000 68.131
227.000000 68.106
230.000000 68.128
233.000000 68.116
236.000000 68.053
240.000000 67.966
243.000000 67.915
247.000000 67.828
250.000000 67.744
254.000000 67.630
258.000000 67.505
262.000000 67.388
265.000000 67.332
269.000000 67.305
272.000000 67.290
276.000000 67.238
280.000000 67.172
285.000000 67.128
290.000000 67.078
295.000000 67.004
300.000000 66.905
304.000000 66.837
307.000000 66.807
311.000000 66.771
315.000000 66.721
320.000000 66.654
325.000000 66.582
330.000000 66.521
335.000000 66.487
340.000000 66.449
345.000000 66.379
350.000000 66.320
355.000000 66.316
360.000000 66.341
365.000000 66.332
370.000000 66.255
375.000000 66.163
382.000000 66.083
387.000000 66.044
395.000000 66.014
400.000000 65.987
406.000000 65.919
412.000000 65.865
418.000000 65.888
425.000000 65.932
431.000000 65.913
437.000000 65.858
444.000000 65.809
450.000000 65.788
455.000000 65.767
462.000000 65.699
468.000000 65.632
475.000000 65.610
482.000000 65.593
487.000000 65.550
494.000000 65.483
500.000000 65.456
508.000000 65.435
515.000000 65.430
522.000000 65.455
530.000000 65.472
538.000000 65.442
545.000000 65.399
552.000000 65.350
560.000000 65.291
570.000000 65.233
580.000000 65.202
590.000000 65.179
600.000000 65.135
608.000000 65.088
615.000000 65.062
622.000000 65.048
630.000000 65.031
640.000000 65.027
650.000000 65.055
660.000000 65.074
670.000000 65.102
680.000000 65.134
690.000000 65.137
700.000000 65.125
710.000000 65.110
720.000000 65.117
730.000000 65.117
740.000000 65.103
750.000000 65.083
762.000000 65.036
775.000000 64.967
788.000000 64.957
800.000000 65.008
812.000000 65.074
825.000000 65.132
838.000000 65.164
850.000000 65.186
862.000000 65.225
875.000000 65.280
885.000000 65.337
900.000000 65.434
912.000000 65.493
925.000000 65.537
938.000000 65.585
950.000000 65.662
962.000000 65.769
975.000000 65.875
988.000000 65.950
1000.000000 66.017
1015.000000 66.118
1030.000000 66.212
1044.000000 66.311
1060.000000 66.424
1075.000000 66.534
1090.000000 66.677
1106.000000 66.838
1120.000000 66.957
1138.000000 67.095
1150.000000 67.188
1172.000000 67.353
1180.000000 67.404
1206.000000 67.554
1220.000000 67.643
1241.000000 67.792
1250.000000 67.857
1265.000000 67.954
1280.000000 68.046
1315.000000 68.273
1320.000000 68.297
1340.000000 68.392
1360.000000 68.510
1380.000000 68.622
1400.000000 68.714
1430.000000 68.826
1450.000000 68.903
1475.000000 68.995
1500.000000 69.080
1525.000000 69.180
1550.000000 69.321
1575.000000 69.500
1600.000000 69.711
1625.000000 69.917
1650.000000 70.093
1675.000000 70.259
1700.000000 70.443
1725.000000 70.580
1750.000000 70.660
1775.000000 70.754
1800.000000 70.857
1825.000000 70.952
1850.000000 71.058
1875.000000 71.159
1900.000000 71.245
1925.000000 71.318
1950.000000 71.411
1975.000000 71.513
2000.000000 71.606
2030.000000 71.736
2060.000000 71.873
2090.000000 72.006
2120.000000 72.143
2140.000000 72.223
2180.000000 72.364
2200.000000 72.446
2240.000000 72.619
2270.000000 72.707
2300.000000 72.771
2330.000000 72.847
2360.000000 72.931
2400.000000 73.044
2430.000000 73.143
2470.000000 73.262
2500.000000 73.324
2540.000000 73.415
2580.000000 73.555
2620.000000 73.737
2650.000000 73.856
2690.000000 73.987
2720.000000 74.071
2760.000000 74.145
2800.000000 74.169
2850.000000 74.178
2900.000000 74.212
2950.000000 74.252
3000.000000 74.274
3040.000000 74.263
3070.000000 74.243
3110.000000 74.213
3150.000000 74.180
3200.000000 74.108
3250.000000 74.004
3300.000000 73.897
3350.000000 73.787
3400.000000 73.674
3450.000000 73.565
3500.000000 73.460
3550.000000 73.371
3600.000000 73.288
3650.000000 73.196
3700.000000 73.099
3750.000000 72.995
3820.000000 72.858
3870.000000 72.783
3950.000000 72.679
4000.000000 72.617
4060.000000 72.563
4120.000000 72.515
4180.000000 72.471
4250.000000 72.403
4310.000000 72.331
4370.000000 72.286
4440.000000 72.272
4500.000000 72.276
4550.000000 72.280
4620.000000 72.287
4680.000000 72.282
4750.000000 72.252
4820.000000 72.208
4870.000000 72.168
4940.000000 72.124
5000.000000 72.105
5080.000000 72.037
5150.000000 71.947
5220.000000 71.872
5300.000000 71.787
5380.000000 71.699
5450.000000 71.618
5520.000000 71.548
5600.000000 71.489
5700.000000 71.444
5800.000000 71.342
5900.000000 71.219
6000.000000 71.141
6080.000000 71.095
6150.000000 71.077
6220.000000 71.048
6300.000000 71.006
6400.000000 71.033
6500.000000 71.115
6600.000000 71.195
6700.000000 71.275
6800.000000 71.383
6900.000000 71.577
7000.000000 71.821
7100.000000 72.053
7200.000000 72.282
7300.000000 72.545
7400.000000 72.843
7500.000000 73.149
7620.000000 73.540
7750.000000 73.927
7880.000000 74.122
8000.000000 74.060
8120.000000 73.854
8250.000000 73.518
8380.000000 72.931
8500.000000 72.114
8620.000000 71.079
8750.000000 69.951
8850.000000 69.175
9000.000000 68.070
9120.000000 67.173
9250.000000 66.233
9380.000000 65.368
9500.000000 64.608
9620.000000 63.921
9750.000000 63.297
9880.000000 62.734
10000.000000 62.234
10150.000000 61.648
10300.000000 61.133
10440.000000 60.729
10600.000000 60.315
10750.000000 59.974
10900.000000 59.679
11060.000000 59.393
11200.000000 59.174
11380.000000 58.954
11500.000000 58.824
11720.000000 58.614
11800.000000 58.571
12060.000000 58.548
12200.000000 58.582
12410.000000 58.740
12500.000000 58.841
12650.000000 59.037
12800.000000 59.274
13150.000000 60.011
13200.000000 60.133
13400.000000 60.622
13600.000000 61.199
13800.000000 62.060
14000.000000 62.996
14300.000000 64.040
14500.000000 64.689
14750.000000 65.714
15000.000000 66.372
15250.000000 66.538
15500.000000 66.398
15750.000000 66.052
16000.000000 65.539
16250.000000 64.930
16500.000000 64.216
16750.000000 62.852
17000.000000 60.576
17250.000000 58.142
17500.000000 56.512
17750.000000 55.517
18000.000000 54.579
18250.000000 53.617
18500.000000 52.703
18750.000000 51.846
19000.000000 51.065
19250.000000 50.417
19500.000000 49.821
19750.000000 49.162
