* Measurement data measured by REW V5.30.9
* Source: Headset (Odo By VECLAN.COM), MICROPHONE (Master Volume), L, volume: 0.250
* Format: 1M Log Swept Sine, 1 sweep at -12.0 dBFS with no timing reference
* Dated: 10 13, 24 8:14:13 PM
* REW Settings:
*  C-weighting compensation: Off
*  Target level: 75.0 dB
* Note: ; 
* Measurement: supernova L
* Smoothing: None
* Frequency Step: 1/48 octave
* Start Frequency: 1.000 Hz
*
* Freq(Hz)	SPL(dB)	Phase(degrees)
1.000000	81.816	-133.8539
1.015000	82.103	-134.2535
1.030000	82.385	-134.6574
1.044000	82.642	-135.0463
1.060000	82.929	-135.5146
1.075000	83.191	-135.9863
1.090000	83.446	-136.4988
1.106000	83.711	-137.0901
1.120000	83.939	-137.5899
1.138000	84.228	-138.1935
1.150000	84.417	-138.5730
1.172000	84.759	-139.2241
1.180000	84.880	-139.4474
1.206000	85.268	-140.1279
1.220000	85.471	-140.4679
1.241000	85.768	-140.9469
1.250000	85.891	-141.1418
1.265000	86.094	-141.4541
1.280000	86.291	-141.7524
1.315000	86.727	-142.4031
1.320000	86.786	-142.4918
1.340000	87.018	-142.8385
1.360000	87.237	-143.1753
1.380000	87.444	-143.5062
1.400000	87.638	-143.8353
1.430000	87.903	-144.3343
1.450000	88.062	-144.6764
1.475000	88.239	-145.1178
1.500000	88.383	-145.5440
1.525000	88.496	-145.9488
1.550000	88.581	-146.3342
1.575000	88.641	-146.7020
1.600000	88.682	-147.0543
1.625000	88.705	-147.3930
1.650000	88.715	-147.7200
1.675000	88.716	-148.0372
1.700000	88.712	-148.3468
1.725000	88.705	-148.6505
1.750000	88.701	-148.9504
1.775000	88.701	-149.2484
1.800000	88.711	-149.5464
1.825000	88.734	-149.8465
1.850000	88.768	-150.1469
1.875000	88.802	-150.4405
1.900000	88.835	-150.7273
1.925000	88.867	-151.0080
1.950000	88.899	-151.2830
1.975000	88.930	-151.5529
2.000000	88.961	-151.8181
2.030000	88.997	-152.1309
2.060000	89.033	-152.4386
2.090000	89.067	-152.7421
2.120000	89.101	-153.0423
2.140000	89.123	-153.2411
2.180000	89.167	-153.6363
2.200000	89.189	-153.8334
2.240000	89.231	-154.2221
2.270000	89.262	-154.5079
2.300000	89.292	-154.7893
2.330000	89.321	-155.0666
2.360000	89.349	-155.3403
2.400000	89.387	-155.7005
2.430000	89.414	-155.9675
2.470000	89.449	-156.3201
2.500000	89.475	-156.5827
2.540000	89.508	-156.9309
2.580000	89.541	-157.2779
2.620000	89.573	-157.6227
2.650000	89.596	-157.8795
2.690000	89.626	-158.2190
2.720000	89.647	-158.4712
2.760000	89.676	-158.8040
2.800000	89.703	-159.1324
2.850000	89.735	-159.5360
2.900000	89.765	-159.9311
2.950000	89.793	-160.3172
3.000000	89.819	-160.6959
3.040000	89.838	-160.9936
3.070000	89.851	-161.2138
3.110000	89.869	-161.5028
3.150000	89.885	-161.7866
3.200000	89.904	-162.1335
3.250000	89.922	-162.4714
3.300000	89.939	-162.7996
3.350000	89.955	-163.1180
3.400000	89.970	-163.4268
3.450000	89.983	-163.7265
3.500000	89.996	-164.0177
3.550000	90.008	-164.3009
3.600000	90.019	-164.5768
3.650000	90.030	-164.8457
3.700000	90.040	-165.1074
3.750000	90.050	-165.3603
3.820000	90.062	-165.7011
3.870000	90.071	-165.9360
3.950000	90.083	-166.2991
4.000000	90.091	-166.5194
4.060000	90.101	-166.7773
4.120000	90.110	-167.0253
4.180000	90.119	-167.2643
4.250000	90.129	-167.5339
4.310000	90.138	-167.7589
4.370000	90.146	-167.9799
4.440000	90.156	-168.2334
4.500000	90.165	-168.4442
4.550000	90.172	-168.6157
4.620000	90.181	-168.8511
4.680000	90.190	-169.0495
4.750000	90.200	-169.2787
4.820000	90.210	-169.5056
4.870000	90.217	-169.6652
4.940000	90.227	-169.8856
5.000000	90.236	-170.0720
5.080000	90.248	-170.3174
5.150000	90.257	-170.5296
5.220000	90.267	-170.7389
5.300000	90.278	-170.9745
5.380000	90.289	-171.2071
5.450000	90.298	-171.4088
5.520000	90.307	-171.6092
5.600000	90.316	-171.8366
5.700000	90.327	-172.1177
5.800000	90.338	-172.3945
5.900000	90.348	-172.6663
6.000000	90.357	-172.9338
6.080000	90.364	-173.1444
6.150000	90.370	-173.3258
6.220000	90.376	-173.5043
6.300000	90.382	-173.7045
6.400000	90.389	-173.9495
6.500000	90.396	-174.1889
6.600000	90.402	-174.4232
6.700000	90.409	-174.6515
6.800000	90.415	-174.8742
6.900000	90.422	-175.0930
7.000000	90.428	-175.3089
7.100000	90.435	-175.5212
7.200000	90.443	-175.7301
7.300000	90.450	-175.9367
7.400000	90.457	-176.1412
7.500000	90.464	-176.3429
7.620000	90.473	-176.5826
7.750000	90.482	-176.8411
7.880000	90.492	-177.0984
8.000000	90.501	-177.3332
8.120000	90.509	-177.5639
8.250000	90.517	-177.8092
8.380000	90.525	-178.0515
8.500000	90.533	-178.2737
8.620000	90.541	-178.4940
8.750000	90.550	-178.7307
8.850000	90.556	-178.9116
9.000000	90.564	-179.1807
9.120000	90.571	-179.3942
9.250000	90.579	-179.6236
9.380000	90.587	-179.8508
9.500000	90.594	179.9405
9.620000	90.601	179.7332
9.750000	90.609	179.5101
9.880000	90.611	179.2856
10.000000	90.605	179.0724
10.150000	90.590	178.8039
10.300000	90.570	178.5525
10.440000	90.547	178.3325
10.600000	90.518	178.1026
10.750000	90.491	177.9215
10.900000	90.463	177.7616
11.060000	90.436	177.5719
11.200000	90.416	177.3881
11.380000	90.392	177.1671
11.500000	90.376	177.0400
11.720000	90.347	176.8241
11.800000	90.338	176.7484
12.060000	90.309	176.5047
12.200000	90.295	176.3466
12.410000	90.277	176.0873
12.500000	90.274	175.9794
12.650000	90.274	175.8037
12.800000	90.277	175.6226
13.150000	90.280	175.1556
13.200000	90.279	175.0868
13.400000	90.278	174.8009
13.600000	90.273	174.5309
13.800000	90.265	174.2928
14.000000	90.257	174.0581
14.300000	90.247	173.7106
14.500000	90.242	173.4981
14.750000	90.238	173.2449
15.000000	90.236	172.9929
15.250000	90.238	172.6735
15.500000	90.238	172.3344
15.750000	90.236	171.9901
16.000000	90.230	171.6411
16.250000	90.224	171.2897
16.500000	90.219	170.9467
16.750000	90.212	170.6398
17.000000	90.206	170.3389
17.250000	90.203	170.0373
17.500000	90.201	169.7289
17.750000	90.199	169.4257
18.000000	90.196	169.1197
18.250000	90.193	168.7994
18.500000	90.190	168.4964
18.750000	90.188	168.2089
19.000000	90.187	167.9349
19.250000	90.187	167.6436
19.500000	90.187	167.3439
19.750000	90.185	167.0409
20.000000	90.179	166.7380
20.299999	90.168	166.3987
20.600000	90.154	166.1138
20.900000	90.144	165.8977
21.200001	90.144	165.7003
21.400000	90.150	165.5463
21.799999	90.166	165.1456
22.000000	90.169	164.8924
22.400000	90.153	164.3222
22.700001	90.119	163.9691
23.000000	90.078	163.7772
23.299999	90.050	163.7264
23.600000	90.049	163.7252
24.000000	90.089	163.5661
24.299999	90.126	163.1810
24.700001	90.142	162.3579
25.000000	90.109	161.7087
25.400000	90.019	161.1119
25.799999	89.938	160.9855
26.200001	89.925	161.0205
26.500000	89.958	160.9196
26.900000	90.012	160.3127
27.200001	90.022	159.6110
27.600000	89.969	158.6841
28.000000	89.876	158.1501
28.500000	89.804	158.0421
29.000000	89.823	157.9109
29.500000	89.863	157.3485
30.000000	89.867	156.6761
30.400000	89.871	156.2310
30.700001	89.886	155.8630
31.100000	89.901	155.1384
31.500000	89.861	154.2225
32.000000	89.704	153.4783
32.500000	89.541	153.8099
33.000000	89.530	154.6247
33.500000	89.622	154.7482
34.000000	89.639	154.3208
34.500000	89.602	154.4969
35.000000	89.719	155.1697
35.500000	89.999	154.5000
36.000000	90.121	151.8902
36.500000	89.854	149.3026
37.000000	89.413	149.4226
37.500000	89.332	151.8631
38.200001	89.863	152.0536
38.700001	89.994	148.9597
39.500000	89.455	146.6936
40.000000	89.326	148.2566
40.599998	89.596	148.5941
41.200001	89.617	146.4664
41.799999	89.286	146.2658
42.500000	89.356	149.2726
43.099998	89.865	149.0735
43.700001	90.083	146.1343
44.400002	89.881	143.4596
45.000000	89.676	142.6061
45.500000	89.517	141.9501
46.200001	89.199	141.7614
46.799999	89.055	142.9708
47.500000	89.200	143.3920
48.200001	89.248	141.7762
48.700001	89.130	140.8432
49.400002	89.018	140.7152
50.000000	89.072	140.3828
50.799999	89.106	138.8961
51.500000	89.022	137.8870
52.200001	88.961	137.5827
53.000000	88.982	137.3323
53.799999	88.993	136.6935
54.500000	88.934	136.3633
55.200001	88.908	136.5309
56.000000	88.959	136.2513
57.000000	88.871	135.1859
58.000000	88.757	135.0579
59.000000	88.749	134.2867
60.000000	88.641	133.3269
60.799999	88.599	132.9171
61.500000	88.594	132.3682
62.200001	88.575	131.7666
63.000000	88.558	131.2118
64.000000	88.539	130.4695
65.000000	88.499	129.8602
66.000000	88.460	129.2837
67.000000	88.406	128.7652
68.000000	88.371	128.1832
69.000000	88.317	127.4666
70.000000	88.262	126.8693
71.000000	88.219	126.2841
72.000000	88.187	125.7571
73.000000	88.163	125.1859
74.000000	88.120	124.5773
75.000000	88.065	124.1086
76.199997	88.025	123.5245
77.500000	87.965	122.7437
78.800003	87.905	122.0059
80.000000	87.854	121.3459
81.199997	87.816	120.7704
82.500000	87.756	119.9708
83.800003	87.718	119.4515
85.000000	87.635	118.6475
86.199997	87.604	118.1140
87.500000	87.546	117.5981
88.500000	87.555	116.6917
90.000000	87.536	116.6786
91.199997	87.403	114.8782
92.500000	87.527	115.7891
93.800003	87.100	113.8956
95.000000	87.547	114.4655
96.199997	86.747	112.3423
97.500000	87.649	113.4923
98.800003	86.423	111.7129
100.000000	87.807	113.6837
101.500000	86.256	108.9285
103.000000	87.564	112.4067
104.400002	86.874	106.0464
106.000000	86.465	110.6511
107.500000	87.206	110.3859
109.000000	87.144	105.7785
110.599998	86.697	105.6181
112.000000	86.505	105.9543
113.800003	86.414	105.2334
115.000000	86.437	104.1679
117.199997	86.547	101.8309
118.000000	86.567	101.6340
120.599998	86.692	102.2759
122.000000	86.657	102.4961
124.099998	86.408	102.5281
125.000000	86.304	102.0372
126.500000	86.263	100.9843
128.000000	86.198	99.7795
131.500000	86.268	98.8664
132.000000	86.251	98.6171
134.000000	86.137	98.2766
136.000000	86.038	97.3867
138.000000	86.046	96.3528
140.000000	86.031	95.8156
143.000000	85.926	94.9764
145.000000	85.867	94.2771
147.500000	85.824	93.3486
150.000000	85.772	92.6250
152.500000	85.722	91.9614
155.000000	85.627	91.0750
157.500000	85.603	90.2565
160.000000	85.521	89.4523
162.500000	85.525	88.3925
165.000000	85.423	88.5792
167.500000	85.343	87.0998
170.000000	85.209	86.6104
172.500000	85.225	85.6221
175.000000	85.174	85.4402
177.500000	85.136	84.7630
180.000000	85.036	84.2369
182.500000	84.971	83.0114
185.000000	84.966	83.0486
187.500000	84.895	82.3330
190.000000	84.758	81.3882
192.500000	84.804	80.6179
195.000000	84.538	81.8441
197.500000	84.693	80.0775
200.000000	84.603	79.5777
203.000000	84.623	78.5692
206.000000	84.553	78.3090
209.000000	84.519	77.2208
212.000000	84.458	76.6756
214.000000	84.393	76.7195
218.000000	84.407	74.8688
220.000000	84.328	75.1861
224.000000	84.270	74.6378
227.000000	84.138	73.3907
230.000000	84.181	72.4516
233.000000	84.187	73.1257
236.000000	84.116	72.5096
240.000000	83.980	71.9317
243.000000	84.011	71.4257
247.000000	83.962	70.3566
250.000000	83.979	69.8499
254.000000	83.895	70.1736
258.000000	83.815	68.7132
262.000000	83.794	70.2317
265.000000	83.782	68.9864
269.000000	83.966	67.3981
272.000000	84.022	67.2359
276.000000	83.951	66.7490
280.000000	83.858	66.8635
285.000000	83.564	65.5112
290.000000	83.623	65.0743
295.000000	83.644	64.0058
300.000000	83.693	62.8200
304.000000	83.559	62.5175
307.000000	83.613	62.1222
311.000000	83.617	61.9671
315.000000	83.568	61.3038
320.000000	83.535	60.9902
325.000000	83.508	60.5533
330.000000	83.434	59.8466
335.000000	83.467	59.4177
340.000000	83.569	59.0535
345.000000	83.462	58.6628
350.000000	83.409	58.1736
355.000000	83.345	56.4338
360.000000	83.463	57.0164
365.000000	83.148	56.0766
370.000000	83.350	55.0949
375.000000	83.330	55.7312
382.000000	83.112	54.4792
387.000000	83.205	54.1522
395.000000	83.188	53.6455
400.000000	83.188	53.1194
406.000000	83.079	53.3259
412.000000	83.108	53.1329
418.000000	83.097	51.7503
425.000000	83.020	51.6353
431.000000	83.048	51.3376
437.000000	82.914	50.8749
444.000000	83.003	50.3250
450.000000	82.997	49.7532
455.000000	82.774	49.2043
462.000000	82.841	49.4622
468.000000	82.884	49.8224
475.000000	82.944	48.4299
482.000000	82.807	49.1496
487.000000	82.885	48.3351
494.000000	82.841	48.7277
500.000000	82.803	48.6944
508.000000	82.801	48.2134
515.000000	82.826	47.6859
522.000000	82.833	47.5781
530.000000	82.776	47.2381
538.000000	82.752	47.2268
545.000000	82.745	46.8621
552.000000	82.724	46.9327
560.000000	82.727	46.5445
570.000000	82.683	46.4417
580.000000	82.711	46.3206
590.000000	82.690	46.3307
600.000000	82.662	46.0388
608.000000	82.677	45.9168
615.000000	82.654	45.9185
622.000000	82.666	45.7775
630.000000	82.648	45.7814
640.000000	82.656	45.7964
650.000000	82.652	45.7229
660.000000	82.644	45.7625
670.000000	82.657	45.6965
680.000000	82.643	45.7431
690.000000	82.657	45.7374
700.000000	82.671	45.7862
710.000000	82.677	45.8099
720.000000	82.688	45.8253
730.000000	82.688	45.9598
740.000000	82.706	46.0118
750.000000	82.708	46.1461
762.000000	82.735	46.0366
775.000000	82.745	46.4012
788.000000	82.773	46.4957
800.000000	82.784	46.6136
812.000000	82.800	46.8596
825.000000	82.802	47.1626
838.000000	82.822	47.5252
850.000000	82.844	47.8196
862.000000	82.858	48.1709
875.000000	82.934	48.6699
885.000000	82.979	48.9069
900.000000	83.052	49.4072
912.000000	83.114	49.7297
925.000000	83.213	50.0455
938.000000	83.289	50.2896
950.000000	83.365	50.6300
962.000000	83.457	50.9154
975.000000	83.541	51.1891
988.000000	83.657	51.3643
1000.000000	83.740	51.4972
1015.000000	83.867	51.6390
1030.000000	83.978	51.6614
1044.000000	84.079	51.6185
1060.000000	84.216	51.7226
1075.000000	84.350	51.7514
1090.000000	84.463	51.7628
1106.000000	84.575	51.5935
1120.000000	84.714	51.4423
1138.000000	84.868	51.2107
1150.000000	84.898	50.8366
1172.000000	85.059	50.7949
1180.000000	85.119	50.5903
1206.000000	85.295	50.1476
1220.000000	85.375	49.8733
1241.000000	85.498	49.3951
1250.000000	85.564	49.2115
1265.000000	85.628	48.9365
1280.000000	85.719	48.6252
1315.000000	85.900	47.9136
1320.000000	85.928	47.8067
1340.000000	86.022	47.4232
1360.000000	86.093	47.1296
1380.000000	86.198	46.7669
1400.000000	86.273	46.3292
1430.000000	86.399	45.8657
1450.000000	86.477	45.5139
1475.000000	86.600	45.0143
1500.000000	86.679	44.6914
1525.000000	86.782	44.4229
1550.000000	86.908	44.0072
1575.000000	86.991	43.4678
1600.000000	87.098	43.0227
1625.000000	87.190	42.6405
1650.000000	87.286	42.2719
1675.000000	87.370	41.9497
1700.000000	87.480	41.4087
1725.000000	87.576	40.9988
1750.000000	87.665	40.5515
1775.000000	87.760	40.0516
1800.000000	87.856	39.6414
1825.000000	87.976	39.1112
1850.000000	88.055	38.5431
1875.000000	88.150	38.1003
1900.000000	88.244	37.6353
1925.000000	88.334	37.0300
1950.000000	88.420	36.4083
1975.000000	88.510	35.7653
2000.000000	88.591	35.1202
2030.000000	88.695	34.4111
2060.000000	88.778	33.6102
2090.000000	88.879	32.7709
2120.000000	88.973	31.9347
2140.000000	89.032	31.3391
2180.000000	89.115	30.1927
2200.000000	89.158	29.6064
2240.000000	89.256	28.1078
2270.000000	89.288	27.6764
2300.000000	89.382	26.2603
2330.000000	89.422	25.5403
2360.000000	89.446	24.6570
2400.000000	89.493	23.4235
2430.000000	89.486	22.5654
2470.000000	89.489	21.2142
2500.000000	89.523	20.7546
2540.000000	89.545	19.5837
2580.000000	89.504	18.4323
2620.000000	89.587	17.6108
2650.000000	89.627	17.6208
2690.000000	89.689	16.7004
2720.000000	89.525	14.5816
2760.000000	89.584	14.7396
2800.000000	89.575	13.3383
2850.000000	89.564	12.3071
2900.000000	89.498	11.3025
2950.000000	89.478	10.1685
3000.000000	89.416	9.3367
3040.000000	89.394	8.7885
3070.000000	89.384	8.3594
3110.000000	89.348	7.7648
3150.000000	89.318	7.0262
3200.000000	89.254	6.3635
3250.000000	89.185	5.6057
3300.000000	89.110	5.0060
3350.000000	89.043	4.5315
3400.000000	88.972	4.1202
3450.000000	88.900	3.8354
3500.000000	88.853	3.5823
3550.000000	88.802	3.3159
3600.000000	88.778	3.1226
3650.000000	88.751	2.9167
3700.000000	88.721	2.6661
3750.000000	88.714	2.4653
3820.000000	88.673	2.1038
3870.000000	88.678	1.8563
3950.000000	88.658	1.5199
4000.000000	88.649	1.3035
4060.000000	88.667	1.0233
4120.000000	88.687	0.7247
4180.000000	88.701	0.2678
4250.000000	88.725	-0.1886
4310.000000	88.732	-0.6013
4370.000000	88.741	-1.1245
4440.000000	88.734	-1.6344
4500.000000	88.728	-2.1140
4550.000000	88.710	-2.4819
4620.000000	88.690	-2.9959
4680.000000	88.670	-3.4162
4750.000000	88.643	-3.8484
4820.000000	88.606	-4.2315
4870.000000	88.591	-4.5253
4940.000000	88.551	-4.9014
5000.000000	88.524	-5.2661
5080.000000	88.432	-5.5868
5150.000000	88.354	-5.9175
5220.000000	88.283	-6.2013
5300.000000	88.213	-6.4886
5380.000000	88.134	-6.6952
5450.000000	88.080	-6.8879
5520.000000	88.020	-7.1284
5600.000000	87.957	-7.4207
5700.000000	87.851	-7.5232
5800.000000	87.786	-7.3232
5900.000000	87.809	-7.2055
6000.000000	87.868	-7.4309
6080.000000	87.906	-7.6378
6150.000000	87.955	-7.9799
6220.000000	88.008	-8.3472
6300.000000	88.102	-8.7467
6400.000000	88.275	-9.5732
6500.000000	88.485	-10.6497
6600.000000	88.692	-12.1179
6700.000000	88.923	-14.0319
6800.000000	89.133	-16.5101
6900.000000	89.255	-19.6517
7000.000000	89.274	-23.0292
7100.000000	89.139	-26.5569
7200.000000	88.845	-29.6229
7300.000000	88.443	-31.7010
7400.000000	88.020	-32.6088
7500.000000	87.670	-32.2659
7620.000000	87.453	-30.8046
7750.000000	87.550	-29.2687
7880.000000	87.855	-29.3364
8000.000000	88.178	-31.3149
8120.000000	88.219	-34.7114
8250.000000	87.968	-38.9240
8380.000000	87.446	-42.2670
8500.000000	86.854	-44.2134
8620.000000	86.205	-45.1268
8750.000000	85.517	-45.0880
8850.000000	85.000	-44.5082
9000.000000	84.269	-43.0416
9120.000000	83.708	-41.2038
9250.000000	83.180	-38.9929
9380.000000	82.683	-36.3480
9500.000000	82.261	-33.9082
9620.000000	81.886	-31.2275
9750.000000	81.503	-28.4895
9880.000000	81.147	-25.4004
10000.000000	80.829	-22.5801
10150.000000	80.546	-19.0076
10300.000000	80.281	-15.5527
10440.000000	80.095	-12.1034
10600.000000	79.900	-8.3848
10750.000000	79.788	-5.0573
10900.000000	79.708	-1.8412
11060.000000	79.672	1.6700
11200.000000	79.682	4.3997
11380.000000	79.742	7.5165
11500.000000	79.821	9.4073
11720.000000	80.017	12.1666
11800.000000	80.104	13.0818
12060.000000	80.317	14.9915
12200.000000	80.394	16.2842
12410.000000	80.566	18.0581
12500.000000	80.615	18.5281
12650.000000	80.717	19.5298
12800.000000	80.791	20.6792
13150.000000	80.912	23.8596
13200.000000	80.936	24.4606
13400.000000	81.020	26.9067
13600.000000	81.139	29.8437
13800.000000	81.317	32.9637
14000.000000	81.628	36.2173
14300.000000	82.426	40.5093
14500.000000	83.180	41.5289
14750.000000	84.361	38.7081
15000.000000	85.090	27.5905
15250.000000	84.235	14.0564
15500.000000	82.457	4.4272
15750.000000	80.145	-1.0262
16000.000000	77.690	-1.3620
16250.000000	75.694	1.3233
16500.000000	74.036	6.2109
16750.000000	72.730	12.1503
17000.000000	71.768	18.3133
17250.000000	71.107	25.1676
17500.000000	70.860	31.8997
17750.000000	70.955	39.4408
18000.000000	71.350	47.1254
18250.000000	72.070	54.8837
18500.000000	73.104	62.2167
18750.000000	74.358	68.4112
19000.000000	75.794	72.9013
19250.000000	77.256	74.0464
19500.000000	78.404	71.7978
19750.000000	78.899	67.5980
