Freq[Hz]     dBSPL  Phase[Deg]
5.00000     70.317    -2.958
5.07273     70.316    -2.973
5.14651     70.316    -2.994
5.22137     70.315    -3.021
5.29732     70.314    -3.052
5.37437     70.313    -3.086
5.45254     70.312    -3.121
5.53185     70.311    -3.157
5.61231     70.310    -3.193
5.69394     70.309    -3.229
5.77676     70.308    -3.267
5.86079     70.307    -3.304
5.94604     70.306    -3.342
6.03252     70.305    -3.381
6.12027     70.304    -3.421
6.20929     70.303    -3.461
6.29961     70.302    -3.501
6.39124     70.301    -3.543
6.48420     70.300    -3.584
6.57851     70.299    -3.627
6.67420     70.298    -3.670
6.77128     70.297    -3.714
6.86977     70.296    -3.758
6.96969     70.296    -3.803
7.07107     70.295    -3.849
7.17392     70.294    -3.895
7.27827     70.293    -3.943
7.38413     70.292    -3.990
7.49154     70.291    -4.039
7.60050     70.290    -4.088
7.71105     70.289    -4.138
7.82321     70.288    -4.189
7.93701     70.287    -4.241
8.05245     70.286    -4.293
8.16958     70.285    -4.347
8.28841     70.284    -4.401
8.40896     70.283    -4.455
8.53128     70.282    -4.511
8.65537     70.281    -4.568
8.78126     70.280    -4.625
8.90899     70.279    -4.683
9.03857     70.278    -4.743
9.17004     70.277    -4.803
9.30342     70.276    -4.864
9.43874     70.275    -4.926
9.57603     70.274    -4.989
9.71532     70.273    -5.053
9.85663     70.272    -5.118
10.0000     70.271    -5.184
10.1455     70.270    -5.251
10.2930     70.269    -5.319
10.4427     70.268    -5.388
10.5946     70.267    -5.458
10.7487     70.266    -5.529
10.9051     70.266    -5.602
11.0637     70.265    -5.675
11.2246     70.264    -5.750
11.3879     70.263    -5.826
11.5535     70.262    -5.903
11.7216     70.261    -5.982
11.8921     70.260    -6.062
12.0650     70.259    -6.143
12.2405     70.258    -6.225
12.4186     70.257    -6.309
12.5992     70.256    -6.394
12.7825     70.255    -6.480
12.9684     70.254    -6.568
13.1570     70.253    -6.657
13.3484     70.252    -6.748
13.5426     70.251    -6.840
13.7395     70.250    -6.934
13.9394     70.249    -7.030
14.1421     70.248    -7.127
14.3478     70.247    -7.225
14.5565     70.246    -7.326
14.7683     70.245    -7.428
14.9831     70.244    -7.532
15.2010     70.243    -7.637
15.4221     70.242    -7.745
15.6464     70.241    -7.854
15.8740     70.240    -7.966
16.1049     70.239    -8.079
16.3392     70.238    -8.194
16.5768     70.237    -8.311
16.8179     70.236    -8.431
17.0626     70.235    -8.552
17.3107     70.235    -8.676
17.5625     70.234    -8.801
17.8180     70.233    -8.929
18.0771     70.232    -9.059
18.3401     70.231    -9.191
18.6068     70.230    -9.325
18.8775     70.229    -9.461
19.1521     70.228    -9.598
19.4306     70.227    -9.736
19.7133     70.226    -9.873
20.0000     70.227   -10.010
20.2909     70.228   -10.150
20.5860     70.232   -10.302
20.8855     70.235   -10.468
21.1893     70.238   -10.640
21.4975     70.242   -10.819
21.8102     70.248   -11.021
22.1274     70.250   -11.245
22.4492     70.248   -11.471
22.7758     70.247   -11.701
23.1071     70.240   -11.931
23.4432     70.230   -12.136
23.7841     70.227   -12.327
24.1301     70.224   -12.525
24.4811     70.224   -12.732
24.8372     70.224   -12.955
25.1984     70.224   -13.189
25.5649     70.224   -13.435
25.9368     70.224   -13.693
26.3141     70.224   -13.965
26.6968     70.224   -14.255
27.0851     70.224   -14.569
27.4791     70.222   -14.912
27.8788     70.216   -15.284
28.2843     70.201   -15.671
28.6957     70.178   -16.042
29.1131     70.152   -16.384
29.5365     70.124   -16.701
29.9661     70.098   -16.999
30.4020     70.076   -17.300
30.8442     70.050   -17.604
31.2929     70.023   -17.899
31.7480     69.996   -18.188
32.2098     69.970   -18.470
32.6783     69.948   -18.762
33.1536     69.923   -19.072
33.6359     69.895   -19.383
34.1251     69.869   -19.696
34.6215     69.840   -20.011
35.1250     69.814   -20.335
35.6359     69.787   -20.688
36.1543     69.754   -21.060
36.6802     69.718   -21.445
37.2137     69.670   -21.822
37.7550     69.620   -22.161
38.3041     69.572   -22.487
38.8613     69.518   -22.797
39.4265     69.468   -23.094
40.0000     69.413   -23.388
40.5818     69.356   -23.661
41.1721     69.299   -23.915
41.7710     69.239   -24.142
42.3785     69.185   -24.354
42.9949     69.130   -24.566
43.6203     69.075   -24.765
44.2548     69.023   -24.964
44.8985     68.964   -25.149
45.5515     68.912   -25.314
46.2141     68.860   -25.478
46.8863     68.808   -25.628
47.5683     68.767   -25.798
48.2602     68.719   -25.993
48.9621     68.670   -26.179
49.6743     68.628   -26.388
50.3968     68.576   -26.614
51.1299     68.524   -26.835
51.8736     68.468   -27.060
52.6281     68.407   -27.269
53.3936     68.345   -27.450
54.1702     68.282   -27.603
54.9581     68.225   -27.744
55.7575     68.169   -27.892
56.5685     68.114   -28.043
57.3914     68.059   -28.206
58.2261     67.998   -28.364
59.0730     67.938   -28.503
59.9323     67.877   -28.623
60.8040     67.822   -28.735
61.6884     67.768   -28.859
62.5857     67.713   -28.984
63.4960     67.664   -29.127
64.4196     67.608   -29.284
65.3566     67.556   -29.445
66.3073     67.500   -29.623
67.2717     67.442   -29.805
68.2502     67.381   -29.990
69.2429     67.316   -30.171
70.2501     67.249   -30.336
71.2719     67.183   -30.491
72.3086     67.115   -30.643
73.3603     67.049   -30.798
74.4274     66.978   -30.956
75.5099     66.907   -31.109
76.6083     66.832   -31.259
77.7226     66.754   -31.394
78.8531     66.676   -31.515
80.0000     66.595   -31.624
81.1636     66.513   -31.718
82.3442     66.432   -31.807
83.5419     66.343   -31.875
84.7570     66.257   -31.910
85.9899     66.172   -31.935
87.2406     66.080   -31.925
88.5096     65.998   -31.887
89.7970     65.914   -31.840
91.1031     65.833   -31.775
92.4282     65.756   -31.704
93.7726     65.682   -31.634
95.1366     65.610   -31.573
96.5204     65.539   -31.529
97.9243     65.468   -31.505
99.3486     65.389   -31.486
100.794     65.307   -31.448
102.260     65.224   -31.393
103.747     65.136   -31.303
105.256     65.053   -31.182
106.787     64.971   -31.049
108.340     64.892   -30.906
109.916     64.814   -30.761
111.515     64.736   -30.609
113.137     64.659   -30.451
114.783     64.580   -30.283
116.452     64.503   -30.102
118.146     64.424   -29.907
119.865     64.346   -29.688
121.608     64.271   -29.450
123.377     64.197   -29.191
125.171     64.133   -28.932
126.992     64.068   -28.685
128.839     64.005   -28.442
130.713     63.943   -28.208
132.615     63.881   -27.984
134.543     63.816   -27.754
136.500     63.752   -27.517
138.486     63.688   -27.279
140.500     63.623   -27.033
142.544     63.555   -26.770
144.617     63.490   -26.484
146.721     63.426   -26.181
148.855     63.366   -25.866
151.020     63.310   -25.551
153.217     63.257   -25.247
155.445     63.202   -24.943
157.706     63.153   -24.650
160.000     63.097   -24.367
162.327     63.044   -24.078
164.688     62.989   -23.792
167.084     62.929   -23.489
169.514     62.870   -23.159
171.980     62.811   -22.798
174.481     62.758   -22.413
177.019     62.712   -22.035
179.594     62.664   -21.661
182.206     62.623   -21.303
184.856     62.574   -20.958
187.545     62.522   -20.584
190.273     62.473   -20.185
193.041     62.422   -19.755
195.849     62.375   -19.280
198.697     62.342   -18.797
201.587     62.311   -18.326
204.520     62.287   -17.875
207.494     62.262   -17.451
210.512     62.234   -17.022
213.574     62.207   -16.577
216.681     62.181   -16.111
219.833     62.163   -15.620
223.030     62.155   -15.141
226.274     62.152   -14.695
229.565     62.152   -14.281
232.905     62.152   -13.896
236.292     62.152   -13.530
239.729     62.152   -13.180
243.216     62.152   -12.844
246.754     62.152   -12.518
250.343     62.152   -12.203
253.984     62.152   -11.896
257.678     62.152   -11.597
261.426     62.152   -11.305
265.229     62.152   -11.019
269.087     62.152   -10.739
273.001     62.152   -10.464
276.972     62.152   -10.192
281.000     62.152    -9.924
285.088     62.152    -9.658
289.234     62.152    -9.394
293.441     62.152    -9.129
297.709     62.152    -8.863
302.040     62.152    -8.591
306.433     62.152    -8.306
310.890     62.155    -8.006
315.412     62.163    -7.691
320.000     62.181    -7.385
324.655     62.207    -7.127
329.377     62.234    -6.922
334.168     62.259    -6.767
339.028     62.278    -6.649
343.959     62.290    -6.528
348.962     62.302    -6.386
354.038     62.321    -6.250
359.188     62.348    -6.165
364.412     62.371    -6.147
369.713     62.389    -6.197
375.090     62.390    -6.285
380.546     62.372    -6.339
386.081     62.348    -6.325
391.697     62.322    -6.242
397.394     62.302    -6.100
403.175     62.293    -5.941
409.039     62.289    -5.797
414.989     62.289    -5.675
421.025     62.289    -5.580
427.149     62.289    -5.514
433.362     62.285    -5.475
439.665     62.278    -5.461
446.060     62.259    -5.447
452.548     62.234    -5.396
459.131     62.207    -5.300
465.809     62.181    -5.160
472.584     62.163    -4.987
479.458     62.155    -4.823
486.432     62.152    -4.703
493.507     62.149    -4.631
500.686     62.141    -4.608
507.968     62.123    -4.611
515.357     62.094    -4.600
522.853     62.060    -4.568
530.458     62.015    -4.492
538.174     61.971    -4.348
546.002     61.934    -4.171
553.943     61.897    -3.986
562.001     61.860    -3.779
570.175     61.826    -3.559
578.469     61.794    -3.335
586.883     61.760    -3.107
595.419     61.723    -2.856
604.080     61.690    -2.577
612.866     61.660    -2.292
621.780     61.631    -2.002
630.824     61.605    -1.713
640.000     61.579    -1.434
649.309     61.549    -1.155
658.753     61.520    -0.871
668.335     61.487    -0.580
678.056     61.449    -0.265
687.919     61.413     0.078
697.925     61.376     0.435
708.077     61.331     0.830
718.376     61.287     1.297
728.825     61.253     1.812
739.426     61.223     2.353
750.181     61.205     2.905
761.093     61.194     3.432
772.163     61.183     3.922
783.394     61.165     4.401
794.789     61.139     4.915
806.349     61.113     5.482
818.078     61.087     6.110
829.977     61.068     6.795
842.050     61.060     7.506
854.298     61.057     8.224
866.724     61.057     8.960
879.330     61.059     9.733
892.120     61.067    10.558
905.097     61.087    11.430
918.262     61.127    12.309
931.618     61.180    13.147
945.169     61.235    13.956
958.917     61.298    14.751
972.864     61.366    15.547
987.015     61.448    16.342
1001.37     61.547    17.090
1015.94     61.655    17.760
1030.71     61.773    18.321
1045.71     61.880    18.785
1060.92     61.976    19.232
1076.35     62.076    19.679
1092.00     62.178    20.110
1107.89     62.283    20.524
1124.00     62.395    20.900
1140.35     62.507    21.226
1156.94     62.618    21.520
1173.77     62.730    21.779
1190.84     62.845    21.988
1208.16     62.955    22.151
1225.73     63.063    22.277
1243.56     63.167    22.363
1261.65     63.263    22.416
1280.00     63.347    22.469
1298.62     63.425    22.547
1317.51     63.495    22.680
1336.67     63.572    22.876
1356.11     63.660    23.089
1375.84     63.749    23.305
1395.85     63.849    23.515
1416.15     63.952    23.695
1436.75     64.056    23.866
1457.65     64.170    24.015
1478.85     64.287    24.120
1500.36     64.406    24.181
1522.19     64.527    24.177
1544.33     64.635    24.140
1566.79     64.743    24.108
1589.58     64.850    24.073
1612.70     64.957    24.037
1636.16     65.070    23.984
1659.95     65.184    23.893
1684.10     65.296    23.762
1708.60     65.401    23.596
1733.45     65.489    23.453
1758.66     65.578    23.379
1784.24     65.671    23.373
1810.19     65.782    23.404
1836.52     65.913    23.390
1863.24     66.047    23.295
1890.34     66.180    23.139
1917.83     66.310    22.943
1945.73     66.434    22.752
1974.03     66.572    22.564
2002.74     66.721    22.312
2031.87     66.869    21.980
2061.43     67.014    21.591
2091.41     67.160    21.141
2121.83     67.297    20.648
2152.69     67.435    20.132
2184.01     67.572    19.576
2215.77     67.709    18.971
2248.00     67.842    18.313
2280.70     67.966    17.629
2313.87     68.095    16.914
2347.53     68.222    16.126
2381.68     68.328    15.319
2416.32     68.442    14.500
2451.46     68.544    13.644
2487.12     68.639    12.797
2523.30     68.739    11.947
2560.00     68.839    11.050
2597.24     68.932    10.105
2635.01     69.016     9.134
2673.34     69.090     8.170
2712.23     69.168     7.201
2751.68     69.238     6.212
2791.70     69.304     5.223
2832.31     69.375     4.204
2873.50     69.438     3.123
2915.30     69.478     2.043
2957.70     69.515     1.010
3000.72     69.545     0.031
3044.37     69.581    -0.893
3088.65     69.631    -1.817
3133.58     69.687    -2.785
3179.16     69.746    -3.815
3225.40     69.808    -4.933
3272.31     69.857    -6.132
3319.91     69.893    -7.365
3368.20     69.921    -8.617
3417.19     69.940    -9.887
3466.89     69.947   -11.151
3517.32     69.950   -12.402
3568.48     69.950   -13.655
3620.39     69.947   -14.920
3673.05     69.939   -16.212
3726.47     69.920   -17.520
3780.67     69.892   -18.821
3835.67     69.860   -20.123
3891.46     69.817   -21.423
3948.06     69.768   -22.708
4005.49     69.713   -23.987
4063.75     69.649   -25.253
4122.86     69.578   -26.496
4182.82     69.500   -27.709
4243.66     69.420   -28.897
4305.39     69.334   -30.070
4368.01     69.242   -31.214
4431.55     69.150   -32.336
4496.01     69.053   -33.447
4561.40     68.952   -34.536
4627.75     68.851   -35.619
4695.06     68.747   -36.718
4763.35     68.630   -37.810
4832.64     68.511   -38.892
4902.93     68.378   -39.968
4974.24     68.231   -40.987
5046.60     68.079   -41.940
5120.00     67.919   -42.829
5194.47     67.754   -43.633
5270.03     67.593   -44.367
5346.68     67.430   -45.042
5424.45     67.268   -45.650
5503.35     67.112   -46.204
5583.40     66.959   -46.714
5664.61     66.812   -47.190
5747.01     66.672   -47.651
5830.60     66.534   -48.103
5915.41     66.398   -48.546
6001.45     66.263   -48.979
6088.74     66.127   -49.394
6177.30     65.993   -49.784
6267.15     65.860   -50.142
6358.31     65.733   -50.480
6450.80     65.611   -50.812
6544.62     65.495   -51.149
6639.82     65.384   -51.510
6736.40     65.271   -51.894
6834.38     65.155   -52.279
6933.79     65.044   -52.668
7034.64     64.930   -53.072
7136.96     64.818   -53.488
7240.77     64.708   -53.936
7346.09     64.591   -54.419
7452.94     64.467   -54.919
7561.35     64.334   -55.421
7671.33     64.189   -55.905
7782.91     64.034   -56.337
7896.12     63.872   -56.691
8010.97     63.711   -56.967
8127.49     63.553   -57.175
8245.71     63.402   -57.331
8365.65     63.261   -57.466
8487.33     63.126   -57.597
8610.78     62.998   -57.740
8736.03     62.871   -57.906
8863.09     62.742   -58.082
8992.01     62.613   -58.260
9122.80     62.480   -58.432
9255.50     62.349   -58.593
9390.12     62.219   -58.763
9526.70     62.086   -58.945
9665.27     61.949   -59.130
9805.86     61.803   -59.295
9948.49     61.648   -59.408
10093.2     61.492   -59.451
10240.0     61.340   -59.432
10388.9     61.195   -59.375
10540.1     61.055   -59.296
10693.4     60.918   -59.199
10848.9     60.782   -59.076
11006.7     60.650   -58.920
11166.8     60.524   -58.732
11329.2     60.409   -58.529
11494.0     60.303   -58.338
11661.2     60.205   -58.181
11830.8     60.112   -58.075
12002.9     60.016   -58.019
12177.5     59.913   -57.984
12354.6     59.805   -57.946
12534.3     59.690   -57.876
12716.6     59.580   -57.777
12901.6     59.471   -57.668
13089.2     59.361   -57.548
13279.6     59.254   -57.414
13472.8     59.147   -57.269
13668.8     59.039   -57.106
13867.6     58.935   -56.922
14069.3     58.831   -56.713
14273.9     58.735   -56.488
14481.5     58.642   -56.266
14692.2     58.550   -56.034
14905.9     58.466   -55.802
15122.7     58.384   -55.581
15342.7     58.304   -55.365
15565.8     58.227   -55.160
15792.2     58.148   -54.954
16021.9     58.072   -54.739
16255.0     57.998   -54.518
16491.4     57.924   -54.277
16731.3     57.859   -54.024
16974.7     57.795   -53.765
17221.6     57.741   -53.494
17472.1     57.700   -53.244
17726.2     57.665   -53.039
17984.0     57.638   -52.888
18245.6     57.611   -52.798
18511.0     57.582   -52.747
18780.2     57.556   -52.727
19053.4     57.529   -52.741
19330.5     57.509   -52.798
19611.7     57.495   -52.942
19897.0     57.473   -53.188
20186.4     57.439   -53.506
20480.0     57.389   -53.860
20777.9     57.322   -54.207
21080.1     57.244   -54.513
21386.7     57.161   -54.770
21697.8     57.076   -54.989
22013.4     56.991   -55.178
22333.6     56.906   -55.347
22658.4     56.821   -55.501
22988.0     56.736   -55.643
23322.4     56.650   -55.775
23661.6     56.565   -55.899
24005.8     56.480   -56.016
24355.0     56.395   -56.126
24709.2     56.310   -56.231
25068.6     56.225   -56.331
25433.2     56.140   -56.427
25803.2     56.055   -56.519
26178.5     55.970   -56.607
26559.3     55.885   -56.692
26945.6     55.800   -56.774
27337.5     55.714   -56.854
27735.2     55.629   -56.931
28138.6     55.544   -57.005
28547.9     55.459   -57.078
28963.1     55.374   -57.148
29384.4     55.289   -57.217
29811.8     55.204   -57.283
30245.4     55.119   -57.348
30685.3     55.034   -57.412
31131.7     54.949   -57.473
31584.5     54.864   -57.534
32043.9     54.779   -57.593
32510.0     54.693   -57.651
32982.8     54.608   -57.707
33462.6     54.523   -57.763
33949.3     54.438   -57.817
34443.1     54.353   -57.870
34944.1     54.268   -57.922
35452.4     54.183   -57.974
35968.0     54.098   -58.024
36491.2     54.013   -58.073
37022.0     53.928   -58.122
37560.5     53.843   -58.172
38106.8     53.766   -58.217
38661.1     53.696   -58.262
39223.4     53.644   -58.296
39793.9     53.604   -58.323
